cls,precision,recall,baseline,average_precision
N,0.8902138324103642,1.0,0.8902138324103642,0.9817703090206553
N,0.8906256319003518,0.9999772964627889,0.8902138324103642,0.9817703090206553
N,0.8910378312765527,0.9999545929255778,0.8902138324103642,0.9817703090206553
N,0.8914504311217261,0.9999318893883667,0.8902138324103642,0.9817703090206553
N,0.8918634320197643,0.9999091858511556,0.8902138324103642,0.9817703090206553
N,0.892256574415495,0.9998637787767334,0.8902138324103642,0.9817703090206553
N,0.8926703693193335,0.9998410752395224,0.8902138324103642,0.9817703090206553
N,0.8930642871628472,0.9997956681651001,0.8902138324103642,0.9817703090206553
N,0.8934991681207645,0.9997956681651001,0.8902138324103642,0.9817703090206553
N,0.8939141731963786,0.999772964627889,0.8902138324103642,0.9817703090206553
N,0.8943498923595596,0.999772964627889,0.8902138324103642,0.9817703090206553
N,0.8947860364936807,0.999772964627889,0.8902138324103642,0.9817703090206553
N,0.8952226062207765,0.999772964627889,0.8902138324103642,0.9817703090206553
N,0.8956392629052597,0.9997502610906779,0.8902138324103642,0.9817703090206553
N,0.8960766757559725,0.9997502610906779,0.8902138324103642,0.9817703090206553
N,0.8964737977930698,0.9997048540162558,0.8902138324103642,0.9817703090206553
N,0.8968916771906954,0.9996821504790446,0.8902138324103642,0.9817703090206553
N,0.8972895863052782,0.9996367434046224,0.8902138324103642,0.9817703090206553
N,0.8976674958202504,0.9995686327929891,0.8902138324103642,0.9817703090206553
N,0.8980865733752192,0.999545929255778,0.8902138324103642,0.9817703090206553
N,0.8984856524756113,0.9995005221813559,0.8902138324103642,0.9817703090206553
N,0.8989259607138481,0.9995005221813559,0.8902138324103642,0.9817703090206553
N,0.8992645556690501,0.9993870044953004,0.8902138324103642,0.9817703090206553
N,0.899685238932265,0.9993643009580893,0.8902138324103642,0.9817703090206553
N,0.8999836407508895,0.9992053761976116,0.8902138324103642,0.9817703090206553
N,0.9003846311223863,0.9991599691231894,0.8902138324103642,0.9817703090206553
N,0.9007860154746796,0.9991145620487673,0.8902138324103642,0.9817703090206553
N,0.9011877943886955,0.999069154974345,0.8902138324103642,0.9817703090206553
N,0.9015489898782937,0.9989783408255006,0.8902138324103642,0.9817703090206553
N,0.9019310401377557,0.9989102302138673,0.8902138324103642,0.9817703090206553
N,0.9023339759629189,0.9988648231394451,0.8902138324103642,0.9817703090206553
N,0.9027373086551483,0.9988194160650229,0.8902138324103642,0.9817703090206553
N,0.9031205091357011,0.9987513054533896,0.8902138324103642,0.9817703090206553
N,0.9035451669884567,0.9987286019161785,0.8902138324103642,0.9817703090206553
N,0.9039496938062554,0.9986831948417564,0.8902138324103642,0.9817703090206553
N,0.9043340597886427,0.998615084230123,0.8902138324103642,0.9817703090206553
N,0.9046982350763154,0.9985242700812786,0.8902138324103642,0.9817703090206553
N,0.9050421897509776,0.9984107523952231,0.8902138324103642,0.9817703090206553
N,0.9054894370547296,0.9984107523952231,0.8902138324103642,0.9817703090206553
N,0.9059165258951012,0.9983880488580121,0.8902138324103642,0.9817703090206553
N,0.9063234263572283,0.9983426417835899,0.8902138324103642,0.9817703090206553
N,0.9067307295747927,0.9982972347091676,0.8902138324103642,0.9817703090206553
N,0.9071384361460697,0.9982518276347455,0.8902138324103642,0.9817703090206553
N,0.9075465466705197,0.9982064205603233,0.8902138324103642,0.9817703090206553
N,0.9079137582090785,0.9981156064114789,0.8902138324103642,0.9817703090206553
N,0.9082606719285921,0.9980020887254234,0.8902138324103642,0.9817703090206553
N,0.9086699466655641,0.9979566816510013,0.8902138324103642,0.9817703090206553
N,0.9090382626680455,0.9978658675021569,0.8902138324103642,0.9817703090206553
N,0.9094483300914622,0.9978204604277346,0.8902138324103642,0.9817703090206553
N,0.9098588050184258,0.9977750533533124,0.8902138324103642,0.9817703090206553
N,0.9101868345830398,0.9976388321300459,0.8902138324103642,0.9817703090206553
N,0.9105566377916856,0.9975480179812015,0.8902138324103642,0.9817703090206553
N,0.9109060750570185,0.997434500295146,0.8902138324103642,0.9817703090206553
N,0.9111936273492927,0.9972528719974572,0.8902138324103642,0.9817703090206553
N,0.9115437300236603,0.9971393543114018,0.8902138324103642,0.9817703090206553
N,0.9118941816520619,0.9970258366253463,0.8902138324103642,0.9817703090206553
N,0.9122657580919932,0.9969350224765018,0.8902138324103642,0.9817703090206553
N,0.9125961338599043,0.9967988012532353,0.8902138324103642,0.9817703090206553
N,0.9129892276338227,0.9967306906416019,0.8902138324103642,0.9817703090206553
N,0.9133411010777746,0.9966171729555465,0.8902138324103642,0.9817703090206553
N,0.9136725092634997,0.9964809517322799,0.8902138324103642,0.9817703090206553
N,0.9139834215020619,0.9963220269718022,0.8902138324103642,0.9817703090206553
N,0.9143363200666805,0.9962085092857467,0.8902138324103642,0.9817703090206553
N,0.914752116082225,0.9961631022113245,0.8902138324103642,0.9817703090206553
N,0.9151266113220141,0.9960722880624802,0.8902138324103642,0.9817703090206553
N,0.9154806127133853,0.9959587703764247,0.8902138324103642,0.9817703090206553
N,0.9158349688896312,0.9958452526903692,0.8902138324103642,0.9817703090206553
N,0.9161479005640276,0.9956863279298914,0.8902138324103642,0.9817703090206553
N,0.9165029469548134,0.995572810243836,0.8902138324103642,0.9817703090206553
N,0.916858349713521,0.9954592925577805,0.8902138324103642,0.9817703090206553
N,0.9172559521318884,0.9953911819461472,0.8902138324103642,0.9817703090206553
N,0.9176120902582995,0.9952776642600917,0.8902138324103642,0.9817703090206553
N,0.9179057591623037,0.9950960359624029,0.8902138324103642,0.9817703090206553
N,0.9181787704814985,0.994891704127503,0.8902138324103642,0.9817703090206553
N,0.9185988008888516,0.9948462970530809,0.8902138324103642,0.9817703090206553
N,0.9189773060950543,0.9947554829042364,0.8902138324103642,0.9817703090206553
N,0.9194401309438872,0.9947554829042364,0.8902138324103642,0.9817703090206553
N,0.9198404366995591,0.9946873722926032,0.8902138324103642,0.9817703090206553
N,0.9202201403184472,0.9945965581437588,0.8902138324103642,0.9817703090206553
N,0.9204951452229835,0.9943922263088589,0.8902138324103642,0.9817703090206553
N,0.9208755624710879,0.9943014121600146,0.8902138324103642,0.9817703090206553
N,0.9212353262927588,0.994187894473959,0.8902138324103642,0.9817703090206553
N,0.9215744053883393,0.9940516732506924,0.8902138324103642,0.9817703090206553
N,0.9219559449100787,0.9939608591018481,0.8902138324103642,0.9817703090206553
N,0.922401078757743,0.9939381555646369,0.8902138324103642,0.9817703090206553
N,0.9227623424259033,0.9938246378785814,0.8902138324103642,0.9817703090206553
N,0.9231239718226684,0.9937111201925259,0.8902138324103642,0.9817703090206553
N,0.9235070690018992,0.9936203060436816,0.8902138324103642,0.9817703090206553
N,0.9238905544061141,0.9935294918948372,0.8902138324103642,0.9817703090206553
N,0.9242533057327531,0.9934159742087817,0.8902138324103642,0.9817703090206553
N,0.9245741578257746,0.9932570494483041,0.8902138324103642,0.9817703090206553
N,0.9249587685541506,0.9931662352994597,0.8902138324103642,0.9817703090206553
N,0.9253649248995134,0.9930981246878263,0.8902138324103642,0.9817703090206553
N,0.9257291622571223,0.9929846070017708,0.8902138324103642,0.9817703090206553
N,0.9260514167125492,0.9928256822412932,0.8902138324103642,0.9817703090206553
N,0.9263951862367049,0.9926894610180266,0.8902138324103642,0.9817703090206553
N,0.9268240980200958,0.9926440539436044,0.8902138324103642,0.9817703090206553
N,0.927253446447508,0.9925986468691822,0.8902138324103642,0.9817703090206553
N,0.9275771336417264,0.9924397221087046,0.8902138324103642,0.9817703090206553
N,0.9279011506942381,0.9922807973482268,0.8902138324103642,0.9817703090206553
N,0.9282892221419772,0.9921899831993825,0.8902138324103642,0.9817703090206553
N,0.9285714285714286,0.9919856513644826,0.8902138324103642,0.9817703090206553
N,0.9289177120986605,0.991849430141216,0.8902138324103642,0.9817703090206553
N,0.9292218014721525,0.9916678018435272,0.8902138324103642,0.9817703090206553
N,0.9295262015239879,0.9914861735458385,0.8902138324103642,0.9817703090206553
N,0.9298522083564036,0.9913272487853607,0.8902138324103642,0.9817703090206553
N,0.9302424681467593,0.9912364346365163,0.8902138324103642,0.9817703090206553
N,0.930547857599659,0.9910548063388276,0.8902138324103642,0.9817703090206553
N,0.930789574713134,0.9908050674295055,0.8902138324103642,0.9817703090206553
N,0.9310742179164355,0.9906007355946056,0.8902138324103642,0.9817703090206553
N,0.9314018531961228,0.990441810834128,0.8902138324103642,0.9817703090206553
N,0.9317511855427864,0.9903055896108613,0.8902138324103642,0.9817703090206553
N,0.9320367599914512,0.9901012577759615,0.8902138324103642,0.9817703090206553
N,0.9323653936620622,0.9899423330154838,0.8902138324103642,0.9817703090206553
N,0.9325873946343759,0.9896698905689506,0.8902138324103642,0.9817703090206553
N,0.9329380538550451,0.9895336693456841,0.8902138324103642,0.9817703090206553
N,0.9331819934038634,0.989283930436362,0.8902138324103642,0.9817703090206553
N,0.9334047568030855,0.9890114879898289,0.8902138324103642,0.9817703090206553
N,0.9336706255627493,0.9887844526177179,0.8902138324103642,0.9817703090206553
N,0.9338724207455708,0.9884893066339736,0.8902138324103642,0.9817703090206553
N,0.9341602643890295,0.9882849747990737,0.8902138324103642,0.9817703090206553
N,0.9344269334822004,0.9880579394269627,0.8902138324103642,0.9817703090206553
N,0.9347153598281418,0.9878536075920629,0.8902138324103642,0.9817703090206553
N,0.9349825903795728,0.9876265722199519,0.8902138324103642,0.9817703090206553
N,0.9351855834157671,0.9873314262362076,0.8902138324103642,0.9817703090206553
N,0.9355178794268256,0.9871725014757299,0.8902138324103642,0.9817703090206553
N,0.935721358763508,0.9868773554919856,0.8902138324103642,0.9817703090206553
N,0.9359681240577213,0.9866276165826636,0.8902138324103642,0.9817703090206553
N,0.9362797914062837,0.9864459882849748,0.8902138324103642,0.9817703090206553
N,0.9364839808546419,0.9861508423012305,0.8902138324103642,0.9817703090206553
N,0.93677466672419,0.9859465104663306,0.8902138324103642,0.9817703090206553
N,0.9369577416152286,0.9856286609453753,0.8902138324103642,0.9817703090206553
N,0.9372057870870223,0.9853789220360533,0.8902138324103642,0.9817703090206553
N,0.9373460657650261,0.9850156654406756,0.8902138324103642,0.9817703090206553
N,0.9376378020837837,0.9848113336057758,0.8902138324103642,0.9817703090206553
N,0.9378217050910507,0.9844934840848204,0.8902138324103642,0.9817703090206553
N,0.938113991431168,0.9842891522499205,0.8902138324103642,0.9817703090206553
N,0.938255033557047,0.983925895654543,0.8902138324103642,0.9817703090206553
N,0.9385045271411862,0.9836761567452209,0.8902138324103642,0.9817703090206553
N,0.9386459191192406,0.9833129001498433,0.8902138324103642,0.9817703090206553
N,0.9388741922893448,0.9830404577033102,0.8902138324103642,0.9817703090206553
N,0.9390593135766043,0.9827226081823548,0.8902138324103642,0.9817703090206553
N,0.9391795094421532,0.9823366480497662,0.8902138324103642,0.9817703090206553
N,0.9392781131911566,0.9819279843799664,0.8902138324103642,0.9817703090206553
N,0.9394854634739906,0.9816328383962222,0.8902138324103642,0.9817703090206553
N,0.939606069829123,0.9812468782636334,0.8902138324103642,0.9817703090206553
N,0.9398573106538478,0.9809971393543114,0.8902138324103642,0.9817703090206553
N,0.9400435255712731,0.9806792898333561,0.8902138324103642,0.9817703090206553
N,0.9401428384792928,0.9802706261635563,0.8902138324103642,0.9817703090206553
N,0.9403293974118775,0.9799527766426009,0.8902138324103642,0.9817703090206553
N,0.9404507607131959,0.9795668165100122,0.8902138324103642,0.9817703090206553
N,0.9405940594059405,0.9792035599146347,0.8902138324103642,0.9817703090206553
N,0.9407156884137028,0.9788175997820461,0.8902138324103642,0.9817703090206553
N,0.9408592760773697,0.9784543431866685,0.8902138324103642,0.9817703090206553
N,0.9410030142850903,0.978091086591291,0.8902138324103642,0.9817703090206553
N,0.9411687573757594,0.9777505335331245,0.8902138324103642,0.9817703090206553
N,0.941312808851183,0.9773872769377469,0.8902138324103642,0.9817703090206553
N,0.9414351345438635,0.9770013168051582,0.8902138324103642,0.9817703090206553
N,0.9415357002145077,0.9765926531353585,0.8902138324103642,0.9817703090206553
N,0.9415925715036573,0.9761385823911365,0.8902138324103642,0.9817703090206553
N,0.9416495026074763,0.9756845116469146,0.8902138324103642,0.9817703090206553
N,0.9418599552768887,0.9753893656631704,0.8902138324103642,0.9817703090206553
N,0.9420048256196535,0.9750261090677927,0.8902138324103642,0.9817703090206553
N,0.9421498485713031,0.9746628524724152,0.8902138324103642,0.9817703090206553
N,0.9422071933599754,0.9742087817281933,0.8902138324103642,0.9817703090206553
N,0.9423085372819544,0.9738001180583935,0.8902138324103642,0.9817703090206553
N,0.942366026289181,0.9733460473141715,0.8902138324103642,0.9817703090206553
N,0.9424235759841654,0.9728919765699496,0.8902138324103642,0.9817703090206553
N,0.942481186463055,0.9724379058257276,0.8902138324103642,0.9817703090206553
N,0.9425828893487738,0.9720292421559279,0.8902138324103642,0.9817703090206553
N,0.9426406449623331,0.9715751714117059,0.8902138324103642,0.9817703090206553
N,0.942742539780491,0.9711665077419062,0.8902138324103642,0.9817703090206553
N,0.9427783902976846,0.9706897334604732,0.8902138324103642,0.9817703090206553
N,0.9428584035652826,0.9702583662534623,0.8902138324103642,0.9817703090206553
N,0.9430047238532515,0.9698951096580847,0.8902138324103642,0.9817703090206553
N,0.9431291134767437,0.969509149525496,0.8902138324103642,0.9817703090206553
N,0.9431210500729217,0.9689869681696408,0.8902138324103642,0.9817703090206553
N,0.9431571965509618,0.9685101938882078,0.8902138324103642,0.9817703090206553
N,0.9432155023669424,0.9680561231439858,0.8902138324103642,0.9817703090206553
N,0.9433402682484175,0.9676701630113972,0.8902138324103642,0.9817703090206553
N,0.9434430222773373,0.9672614993415974,0.8902138324103642,0.9817703090206553
N,0.9434351043559179,0.9667393179857422,0.8902138324103642,0.9817703090206553
N,0.9435380181777876,0.9663306543159424,0.8902138324103642,0.9817703090206553
N,0.9435301423945349,0.9658084729600872,0.8902138324103642,0.9817703090206553
N,0.9436775997514536,0.9654452163647096,0.8902138324103642,0.9817703090206553
N,0.9436697899551489,0.9649230350088543,0.8902138324103642,0.9817703090206553
N,0.9437286177633625,0.9644689642646325,0.8902138324103642,0.9817703090206553
N,0.943809735496777,0.9640375970576216,0.8902138324103642,0.9817703090206553
N,0.9438019837210336,0.9635154157017664,0.8902138324103642,0.9817703090206553
N,0.9438832272707045,0.9630840484947555,0.8902138324103642,0.9817703090206553
N,0.9439422948483904,0.9626299777505335,0.8902138324103642,0.9817703090206553
N,0.9439568761972646,0.9621304999318894,0.8902138324103642,0.9817703090206553
N,0.94401604635614,0.9616764291876675,0.8902138324103642,0.9817703090206553
N,0.9440083842483165,0.9611542478318122,0.8902138324103642,0.9817703090206553
N,0.9440676453527286,0.9607001770875903,0.8902138324103642,0.9817703090206553
N,0.9441046475289075,0.9602234028061571,0.8902138324103642,0.9817703090206553
N,0.944141689373297,0.9597466285247241,0.8902138324103642,0.9817703090206553
N,0.9442458100558659,0.9593379648549244,0.8902138324103642,0.9817703090206553
N,0.9443053257613021,0.9588838941107024,0.8902138324103642,0.9817703090206553
N,0.9443872757371035,0.9584525269036916,0.8902138324103642,0.9817703090206553
N,0.9444245489950311,0.9579757526222585,0.8902138324103642,0.9817703090206553
N,0.9444618623191652,0.9574989783408255,0.8902138324103642,0.9817703090206553
N,0.9445664351333184,0.9570903146710258,0.8902138324103642,0.9817703090206553
N,0.944648701968345,0.9566589474640149,0.8902138324103642,0.9817703090206553
N,0.9446637656453277,0.9561594696453708,0.8902138324103642,0.9817703090206553
N,0.9446564028906145,0.9556372882895156,0.8902138324103642,0.9817703090206553
N,0.9447613059684735,0.9552286246197158,0.8902138324103642,0.9817703090206553
N,0.9447989215906538,0.9547518503382827,0.8902138324103642,0.9817703090206553
N,0.9448140988176056,0.9542523725196386,0.8902138324103642,0.9817703090206553
N,0.9448292924294903,0.9537528947009944,0.8902138324103642,0.9817703090206553
N,0.9448219991898825,0.9532307133451392,0.8902138324103642,0.9817703090206553
N,0.9448597289143063,0.9527539390637061,0.8902138324103642,0.9817703090206553
N,0.9448974994368101,0.9522771647822731,0.8902138324103642,0.9817703090206553
N,0.9449127710408871,0.951777686963629,0.8902138324103642,0.9817703090206553
N,0.9449506111587208,0.9513009126821959,0.8902138324103642,0.9817703090206553
N,0.9449884922604811,0.9508241384007629,0.8902138324103642,0.9817703090206553
N,0.9450264144127872,0.9503473641193297,0.8902138324103642,0.9817703090206553
N,0.9450192003614186,0.9498251827634745,0.8902138324103642,0.9817703090206553
N,0.9450571803100846,0.9493484084820415,0.8902138324103642,0.9817703090206553
N,0.9451630410203067,0.9489397448122417,0.8902138324103642,0.9817703090206553
N,0.945178514864926,0.9484402669935976,0.8902138324103642,0.9817703090206553
N,0.9452845565264635,0.9480316033237979,0.8902138324103642,0.9817703090206553
N,0.9453907134767837,0.9476229396539981,0.8902138324103642,0.9817703090206553
N,0.9454743235280787,0.9471915724469873,0.8902138324103642,0.9817703090206553
N,0.9455126751621241,0.9467147981655541,0.8902138324103642,0.9817703090206553
N,0.945528381505513,0.94621532034691,0.8902138324103642,0.9817703090206553
N,0.9455668043764471,0.945738546065477,0.8902138324103642,0.9817703090206553
N,0.9456734044969339,0.9453298823956773,0.8902138324103642,0.9817703090206553
N,0.9456665000227241,0.944807701039822,0.8902138324103642,0.9817703090206553
N,0.9456595880132782,0.9442855196839668,0.8902138324103642,0.9817703090206553
N,0.9456754174439237,0.9437860418653227,0.8902138324103642,0.9817703090206553
N,0.9456912641689807,0.9432865640466784,0.8902138324103642,0.9817703090206553
N,0.9457071282168071,0.9427870862280343,0.8902138324103642,0.9817703090206553
N,0.9457913685457777,0.9423557190210234,0.8902138324103642,0.9817703090206553
N,0.945875701062423,0.9419243518140126,0.8902138324103642,0.9817703090206553
N,0.94589169213924,0.9414248739953684,0.8902138324103642,0.9817703090206553
N,0.9459305244898891,0.9409480997139354,0.8902138324103642,0.9817703090206553
N,0.9459465631422699,0.9404486218952913,0.8902138324103642,0.9817703090206553
N,0.9460311657450989,0.9400172546882805,0.8902138324103642,0.9817703090206553
N,0.946092999862832,0.9395631839440585,0.8902138324103642,0.9817703090206553
N,0.9461320279976211,0.9390864096626255,0.8902138324103642,0.9817703090206553
N,0.9461939854442257,0.9386323389184035,0.8902138324103642,0.9817703090206553
N,0.9462789100068697,0.9382009717113926,0.8902138324103642,0.9817703090206553
N,0.9463181047518673,0.9377241974299596,0.8902138324103642,0.9817703090206553
N,0.9463344184127275,0.9372247196113155,0.8902138324103642,0.9817703090206553
N,0.9463048763704757,0.9366798347182491,0.8902138324103642,0.9817703090206553
N,0.9462753017854684,0.9361349498251827,0.8902138324103642,0.9817703090206553
N,0.9462456946039035,0.9355900649321164,0.8902138324103642,0.9817703090206553
N,0.9463309286403528,0.9351586977251056,0.8902138324103642,0.9817703090206553
N,0.9463243069284171,0.9346365163692504,0.8902138324103642,0.9817703090206553
N,0.9463406780440683,0.9341370385506061,0.8902138324103642,0.9817703090206553
N,0.9463800800846872,0.9336602642691731,0.8902138324103642,0.9817703090206553
N,0.946373474556758,0.9331380829133179,0.8902138324103642,0.9817703090206553
N,0.9464359765930977,0.9326840121690959,0.8902138324103642,0.9817703090206553
N,0.9464063436448297,0.9321391272760297,0.8902138324103642,0.9817703090206553
N,0.9464228054799576,0.9316396494573854,0.8902138324103642,0.9817703090206553
N,0.9464162089814003,0.9311174681015302,0.8902138324103642,0.9817703090206553
N,0.9463865158162087,0.9305725832084639,0.8902138324103642,0.9817703090206553
N,0.9463798918819017,0.9300504018526087,0.8902138324103642,0.9817703090206553
N,0.9463732605982155,0.9295282204967534,0.8902138324103642,0.9817703090206553
N,0.9463434941486655,0.9289833356036871,0.8902138324103642,0.9817703090206553
N,0.946383116582589,0.928506561322254,0.8902138324103642,0.9817703090206553
N,0.9464227830516323,0.928029787040821,0.8902138324103642,0.9817703090206553
N,0.9464624936292453,0.927553012759388,0.8902138324103642,0.9817703090206553
N,0.946432710583654,0.9270081278663216,0.8902138324103642,0.9817703090206553
N,0.9464724708938262,0.9265313535848885,0.8902138324103642,0.9817703090206553
N,0.9465122754907875,0.9260545793034555,0.8902138324103642,0.9817703090206553
N,0.9465753424657535,0.9256005085592335,0.8902138324103642,0.9817703090206553
N,0.946592017841379,0.9251010307405894,0.8902138324103642,0.9817703090206553
N,0.9466319557435731,0.9246242564591564,0.8902138324103642,0.9817703090206553
N,0.9466719382296851,0.9241474821777232,0.8902138324103642,0.9817703090206553
N,0.9467119653744125,0.9236707078962902,0.8902138324103642,0.9817703090206553
N,0.9467753201396973,0.9232166371520683,0.8902138324103642,0.9817703090206553
N,0.9468387457484975,0.9227625664078464,0.8902138324103642,0.9817703090206553
N,0.9469022423197053,0.9223084956636244,0.8902138324103642,0.9817703090206553
N,0.9469191660058771,0.9218090178449803,0.8902138324103642,0.9817703090206553
N,0.9469361086479675,0.9213095400263361,0.8902138324103642,0.9817703090206553
N,0.9469764183983189,0.920832765744903,0.8902138324103642,0.9817703090206553
N,0.9469934121384853,0.9203332879262589,0.8902138324103642,0.9817703090206553
N,0.9470337992613717,0.9198565136448259,0.8902138324103642,0.9817703090206553
N,0.9470040694139108,0.9193116287517595,0.8902138324103642,0.9817703090206553
N,0.9470445078859924,0.9188348544703264,0.8902138324103642,0.9817703090206553
N,0.9470147506438773,0.9182899695772602,0.8902138324103642,0.9817703090206553
N,0.9470552405941058,0.9178131952958271,0.8902138324103642,0.9817703090206553
N,0.947119216164268,0.9173591245516052,0.8902138324103642,0.9817703090206553
N,0.9471363572400207,0.9168596467329609,0.8902138324103642,0.9817703090206553
N,0.9472004505561552,0.9164055759887391,0.8902138324103642,0.9817703090206553
N,0.9471941770368631,0.9158833946328838,0.8902138324103642,0.9817703090206553
N,0.947211389371799,0.9153839168142397,0.8902138324103642,0.9817703090206553
N,0.9472051149452306,0.9148617354583845,0.8902138324103642,0.9817703090206553
N,0.9472458723364222,0.9143849611769513,0.8902138324103642,0.9817703090206553
N,0.9472396102979244,0.9138627798210961,0.8902138324103642,0.9817703090206553
N,0.9473510713444785,0.9134541161512963,0.8902138324103642,0.9817703090206553
N,0.9473919803986242,0.9129773418698633,0.8902138324103642,0.9817703090206553
N,0.9474093630663335,0.9124778640512192,0.8902138324103642,0.9817703090206553
N,0.9474975234680881,0.9120464968442084,0.8902138324103642,0.9817703090206553
N,0.9475857837353094,0.9116151296371975,0.8902138324103642,0.9817703090206553
N,0.947603305785124,0.9111156518185534,0.8902138324103642,0.9817703090206553
N,0.9475735954259793,0.910570766925487,0.8902138324103642,0.9817703090206553
N,0.9476620490756938,0.9101393997184761,0.8902138324103642,0.9817703090206553
N,0.9477269501868584,0.9096853289742541,0.8902138324103642,0.9817703090206553
N,0.9478155914232972,0.9092539617672434,0.8902138324103642,0.9817703090206553
N,0.9478332938669193,0.9087544839485991,0.8902138324103642,0.9817703090206553
N,0.9478510164431597,0.908255006129955,0.8902138324103642,0.9817703090206553
N,0.94789246598075,0.907778231848522,0.8902138324103642,0.9817703090206553
N,0.9479339627117036,0.9073014575670889,0.8902138324103642,0.9817703090206553
N,0.9479280391133051,0.9067792762112337,0.8902138324103642,0.9817703090206553
N,0.9479696034196153,0.9063025019298007,0.8902138324103642,0.9817703090206553
N,0.9479636933897257,0.9057803205739454,0.8902138324103642,0.9817703090206553
N,0.9480040892988755,0.9052808427553013,0.8902138324103642,0.9817703090206553
N,0.9480219806361063,0.9047813649366572,0.8902138324103642,0.9817703090206553
N,0.9480160902577773,0.9042591835808019,0.8902138324103642,0.9817703090206553
N,0.9480101931458239,0.9037370022249467,0.8902138324103642,0.9817703090206553
N,0.9480281186703206,0.9032375244063024,0.8902138324103642,0.9817703090206553
N,0.948069907727522,0.9027607501248694,0.8902138324103642,0.9817703090206553
N,0.9481356013073454,0.9023066793806475,0.8902138324103642,0.9817703090206553
N,0.9481297591483064,0.9017844980247922,0.8902138324103642,0.9817703090206553
N,0.9481239102916239,0.901262316668937,0.8902138324103642,0.9817703090206553
N,0.9481897478790775,0.9008082459247151,0.8902138324103642,0.9817703090206553
N,0.9482317495994835,0.900331471643282,0.8902138324103642,0.9817703090206553
N,0.948297724717085,0.8998774008990601,0.8902138324103642,0.9817703090206553
N,0.948315897828741,0.899377923080416,0.8902138324103642,0.9817703090206553
N,0.948381997173585,0.898923852336194,0.8902138324103642,0.9817703090206553
N,0.948520071899341,0.8985378922036054,0.8902138324103642,0.9817703090206553
N,0.9485384043548116,0.8980384143849611,0.8902138324103642,0.9817703090206553
N,0.9485567579240348,0.897538936566317,0.8902138324103642,0.9817703090206553
N,0.9485991405180899,0.897062162284884,0.8902138324103642,0.9817703090206553
N,0.9486175502654399,0.8965626844662399,0.8902138324103642,0.9817703090206553
N,0.9486600168249009,0.8960859101848068,0.8902138324103642,0.9817703090206553
N,0.9486784829609678,0.8955864323661626,0.8902138324103642,0.9817703090206553
N,0.9486969704261616,0.8950869545475185,0.8902138324103642,0.9817703090206553
N,0.9487154792574579,0.8945874767288744,0.8902138324103642,0.9817703090206553
N,0.9487581006528705,0.8941107024474413,0.8902138324103642,0.9817703090206553
N,0.9488489815595998,0.8936793352404304,0.8902138324103642,0.9817703090206553
N,0.9488676105255541,0.8931798574217863,0.8902138324103642,0.9817703090206553
N,0.9488621280498105,0.892657676065931,0.8902138324103642,0.9817703090206553
N,0.9489049332335256,0.892180901784498,0.8902138324103642,0.9817703090206553
N,0.9488753050327382,0.8916360168914317,0.8902138324103642,0.9817703090206553
N,0.9488939925057416,0.8911365390727876,0.8902138324103642,0.9817703090206553
N,0.9489368907380082,0.8906597647913544,0.8902138324103642,0.9817703090206553
N,0.9490524481448315,0.8902511011215547,0.8902138324103642,0.9817703090206553
N,0.9490712711597608,0.8897516233029106,0.8902138324103642,0.9817703090206553
N,0.9491143473309264,0.8892748490214776,0.8902138324103642,0.9817703090206553
N,0.9491574736331676,0.8887980747400445,0.8902138324103642,0.9817703090206553
N,0.9492249096334393,0.8883440039958226,0.8902138324103642,0.9817703090206553
N,0.949266919118361,0.8878445261771784,0.8902138324103642,0.9817703090206553
N,0.9493344991741961,0.8873904554329565,0.8902138324103642,0.9817703090206553
N,0.9493535530280937,0.8868909776143123,0.8902138324103642,0.9817703090206553
N,0.9493969458223909,0.8864142033328792,0.8902138324103642,0.9817703090206553
N,0.9493917274939173,0.885892021977024,0.8902138324103642,0.9817703090206553
N,0.9494838835329633,0.8854606547700131,0.8902138324103642,0.9817703090206553
N,0.949527428627107,0.8849838804885801,0.8902138324103642,0.9817703090206553
N,0.9495953982645998,0.8845298097443581,0.8902138324103642,0.9817703090206553
N,0.9496878353331383,0.8840984425373474,0.8902138324103642,0.9817703090206553
N,0.9497071742313323,0.8835989647187031,0.8902138324103642,0.9817703090206553
N,0.9497021193475925,0.8830767833628479,0.8902138324103642,0.9817703090206553
N,0.9496970585361086,0.8825546020069927,0.8902138324103642,0.9817703090206553
N,0.9498142172680161,0.8821459383371929,0.8902138324103642,0.9817703090206553
N,0.9498825946580569,0.881691867592971,0.8902138324103642,0.9817703090206553
N,0.9499265785609398,0.8812150933115379,0.8902138324103642,0.9817703090206553
N,0.9499461259672838,0.8807156154928938,0.8902138324103642,0.9817703090206553
N,0.9499656963638146,0.8802161376742497,0.8902138324103642,0.9817703090206553
N,0.9500098068059233,0.8797393633928166,0.8902138324103642,0.9817703090206553
N,0.9500539691884996,0.8792625891113836,0.8902138324103642,0.9817703090206553
N,0.9501718213058419,0.8788539254415838,0.8902138324103642,0.9817703090206553
N,0.9502898123587779,0.8784452617717841,0.8902138324103642,0.9817703090206553
N,0.9502850683180969,0.8779230804159288,0.8902138324103642,0.9817703090206553
N,0.9503049080358021,0.8774236025972847,0.8902138324103642,0.9817703090206553
N,0.9503247711839385,0.8769241247786405,0.8902138324103642,0.9817703090206553
N,0.9504431314623338,0.8765154611088407,0.8902138324103642,0.9817703090206553
N,0.9504630998127894,0.8760159832901966,0.8902138324103642,0.9817703090206553
N,0.9504584442472641,0.8754938019343413,0.8902138324103642,0.9817703090206553
N,0.9505277695570682,0.8750397311901195,0.8902138324103642,0.9817703090206553
N,0.950498470042444,0.8744948462970531,0.8902138324103642,0.9817703090206553
N,0.9505679012345679,0.8740407755528311,0.8902138324103642,0.9817703090206553
N,0.9505632967684554,0.8735185941969759,0.8902138324103642,0.9817703090206553
N,0.9505834074953031,0.8730191163783317,0.8902138324103642,0.9817703090206553
N,0.950603542099535,0.8725196385596876,0.8902138324103642,0.9817703090206553
N,0.9506237006237006,0.8720201607410435,0.8902138324103642,0.9817703090206553
N,0.950668647845468,0.8715433864596104,0.8902138324103642,0.9817703090206553
N,0.9506888690653187,0.8710439086409663,0.8902138324103642,0.9817703090206553
N,0.9507326870149513,0.8705444308223221,0.8902138324103642,0.9817703090206553
N,0.9508025901208227,0.8700903600781001,0.8902138324103642,0.9817703090206553
N,0.9509222252563116,0.8696816964083004,0.8902138324103642,0.9817703090206553
N,0.950942646364788,0.8691822185896563,0.8902138324103642,0.9817703090206553
N,0.9509630918354667,0.8686827407710122,0.8902138324103642,0.9817703090206553
N,0.9509835617119694,0.868183262952368,0.8902138324103642,0.9817703090206553
N,0.9511035907134148,0.8677745992825682,0.8902138324103642,0.9817703090206553
N,0.9511739660881906,0.8673205285383463,0.8902138324103642,0.9817703090206553
N,0.9512444256209671,0.8668664577941243,0.8902138324103642,0.9817703090206553
N,0.9512900411317462,0.8663896835126913,0.8902138324103642,0.9817703090206553
N,0.9513107680027937,0.8658902056940472,0.8902138324103642,0.9817703090206553
N,0.9513814360945416,0.8654361349498252,0.8902138324103642,0.9817703090206553
N,0.9514022425892166,0.8649366571311811,0.8902138324103642,0.9817703090206553
N,0.9514480621704691,0.864459882849748,0.8902138324103642,0.9817703090206553
N,0.9515189398674835,0.8640058121055261,0.8902138324103642,0.9817703090206553
N,0.9515648845412924,0.863529037824093,0.8902138324103642,0.9817703090206553
N,0.9517110170976544,0.8631430776915043,0.8902138324103642,0.9817703090206553
N,0.951757132480024,0.8626663034100713,0.8902138324103642,0.9817703090206553
N,0.9517782400561418,0.8621668255914271,0.8902138324103642,0.9817703090206553
N,0.9518244514106583,0.8616900513099941,0.8902138324103642,0.9817703090206553
N,0.9518707184261374,0.8612132770285611,0.8902138324103642,0.9817703090206553
N,0.9518417154191879,0.8606683921354947,0.8902138324103642,0.9817703090206553
N,0.9518880486395498,0.8601916178540616,0.8902138324103642,0.9817703090206553
N,0.9519344377686719,0.8597148435726286,0.8902138324103642,0.9817703090206553
N,0.9519557288391397,0.8592153657539845,0.8902138324103642,0.9817703090206553
N,0.95200221489517,0.8587385914725514,0.8902138324103642,0.9817703090206553
N,0.9520235726698063,0.8582391136539073,0.8902138324103642,0.9817703090206553
N,0.9520449562785072,0.8577396358352631,0.8902138324103642,0.9817703090206553
N,0.9520915807256864,0.8572628615538301,0.8902138324103642,0.9817703090206553
N,0.9522391825406837,0.8568769014212414,0.8902138324103642,0.9817703090206553
N,0.9523112266794578,0.8564228306770195,0.8902138324103642,0.9817703090206553
N,0.9523580973551924,0.8559460563955864,0.8902138324103642,0.9817703090206553
N,0.95237974875515,0.8554465785769423,0.8902138324103642,0.9817703090206553
N,0.9524014264397177,0.8549471007582982,0.8902138324103642,0.9817703090206553
N,0.952473744147792,0.8544930300140762,0.8902138324103642,0.9817703090206553
N,0.9524689794884781,0.8539481451210098,0.8902138324103642,0.9817703090206553
N,0.9525160897988142,0.8534713708395768,0.8902138324103642,0.9817703090206553
N,0.9525886111251964,0.8530173000953548,0.8902138324103642,0.9817703090206553
N,0.9526612207620884,0.8525632293511329,0.8902138324103642,0.9817703090206553
N,0.9527846880235569,0.8521545656813332,0.8902138324103642,0.9817703090206553
N,0.9528575057150114,0.8517004949371112,0.8902138324103642,0.9817703090206553
N,0.9530066588725664,0.8513145348045226,0.8902138324103642,0.9817703090206553
N,0.9530034077615585,0.8507923534486673,0.8902138324103642,0.9817703090206553
N,0.9530510458547509,0.8503155791672342,0.8902138324103642,0.9817703090206553
N,0.953200590721597,0.8499296190346456,0.8902138324103642,0.9817703090206553
N,0.9532484076433121,0.8494528447532126,0.8902138324103642,0.9817703090206553
N,0.9533472696680773,0.8490214775462017,0.8902138324103642,0.9817703090206553
N,0.953369726034386,0.8485219997275576,0.8902138324103642,0.9817703090206553
N,0.9534177344427995,0.8480452254461245,0.8902138324103642,0.9817703090206553
N,0.953414721356694,0.8475230440902692,0.8902138324103642,0.9817703090206553
N,0.9534117045744953,0.847000862734414,0.8902138324103642,0.9817703090206553
N,0.9534598271365008,0.846524088452981,0.8902138324103642,0.9817703090206553
N,0.9535335960288623,0.846070017708759,0.8902138324103642,0.9817703090206553
N,0.9536074555788827,0.8456159469645371,0.8902138324103642,0.9817703090206553
N,0.9536045498795922,0.8450937656086819,0.8902138324103642,0.9817703090206553
N,0.953652909510382,0.8446169913272488,0.8902138324103642,0.9817703090206553
N,0.9536756784486738,0.8441175135086046,0.8902138324103642,0.9817703090206553
N,0.9537754735383194,0.8436861463015938,0.8902138324103642,0.9817703090206553
N,0.9538240279418563,0.8432093720201608,0.8902138324103642,0.9817703090206553
N,0.9538726422367272,0.8427325977387277,0.8902138324103642,0.9817703090206553
N,0.9539213165338133,0.8422558234572947,0.8902138324103642,0.9817703090206553
N,0.9540215098029126,0.8418244562502838,0.8902138324103642,0.9817703090206553
N,0.9540188455795273,0.8413022748944285,0.8902138324103642,0.9817703090206553
N,0.9540161780617239,0.8407800935385733,0.8902138324103642,0.9817703090206553
N,0.9540135072433882,0.8402579121827181,0.8902138324103642,0.9817703090206553
N,0.9540870282958034,0.8397811379012851,0.8902138324103642,0.9817703090206553
N,0.9541360175506517,0.839304363619852,0.8902138324103642,0.9817703090206553
N,0.9541334159758271,0.8387821822639967,0.8902138324103642,0.9817703090206553
N,0.9541566529705146,0.8382827044453526,0.8902138324103642,0.9817703090206553
N,0.9541799188064024,0.8377832266267085,0.8902138324103642,0.9817703090206553
N,0.9542549613185335,0.8373291558824865,0.8902138324103642,0.9817703090206553
N,0.9543042071197411,0.8368523816010535,0.8902138324103642,0.9817703090206553
N,0.9543794202222741,0.8363983108568315,0.8902138324103642,0.9817703090206553
N,0.9544028825465951,0.8358988330381873,0.8902138324103642,0.9817703090206553
N,0.9544782507197883,0.8354447622939654,0.8902138324103642,0.9817703090206553
N,0.9545277583119209,0.8349679880125324,0.8902138324103642,0.9817703090206553
N,0.9545253863134657,0.8344458066566771,0.8902138324103642,0.9817703090206553
N,0.9545749850575609,0.8339690323752441,0.8902138324103642,0.9817703090206553
N,0.9548054919908466,0.8336284793170776,0.8902138324103642,0.9817703090206553
N,0.9548813488759367,0.8331744085728556,0.8902138324103642,0.9817703090206553
N,0.9549312643199334,0.8326976342914226,0.8902138324103642,0.9817703090206553
N,0.9549291371404752,0.8321754529355674,0.8902138324103642,0.9817703090206553
N,0.95492700729927,0.8316532715797121,0.8902138324103642,0.9817703090206553
N,0.9549770450751253,0.831176497298279,0.8902138324103642,0.9817703090206553
N,0.955053247024431,0.8307224265540571,0.8902138324103642,0.9817703090206553
N,0.9551034266610948,0.830245652272624,0.8902138324103642,0.9817703090206553
N,0.9551798034706251,0.8297915815284022,0.8902138324103642,0.9817703090206553
N,0.9552301255230126,0.829314807246969,0.8902138324103642,0.9817703090206553
N,0.9553066778312749,0.8288607365027472,0.8902138324103642,0.9817703090206553
N,0.9554356933389192,0.8284520728329474,0.8902138324103642,0.9817703090206553
N,0.9555910710542863,0.8280661127003587,0.8902138324103642,0.9817703090206553
N,0.9556155620805369,0.8275666348817146,0.8902138324103642,0.9817703090206553
N,0.9557187827911857,0.8271352676747037,0.8902138324103642,0.9817703090206553
N,0.9557433851322974,0.8266357898560596,0.8902138324103642,0.9817703090206553
N,0.9557942845135533,0.8261590155746266,0.8902138324103642,0.9817703090206553
N,0.9558189655172413,0.8256595377559823,0.8902138324103642,0.9817703090206553
N,0.9558962760361877,0.8252054670117605,0.8902138324103642,0.9817703090206553
N,0.9559210526315789,0.8247059891931163,0.8902138324103642,0.9817703090206553
N,0.9559985253844533,0.8242519184488943,0.8902138324103642,0.9817703090206553
N,0.9561551433389545,0.8238659583163057,0.8902138324103642,0.9817703090206553
N,0.9562592280109682,0.8234345911092948,0.8902138324103642,0.9817703090206553
N,0.9562842971718024,0.8229351132906507,0.8902138324103642,0.9817703090206553
N,0.9563357972544878,0.8224583390092176,0.8902138324103642,0.9817703090206553
N,0.9563873626373627,0.8219815647277846,0.8902138324103642,0.9817703090206553
N,0.9564125607950941,0.8214820869091405,0.8902138324103642,0.9817703090206553
N,0.9564113415150233,0.8209599055532852,0.8902138324103642,0.9817703090206553
N,0.956463053144188,0.8204831312718521,0.8902138324103642,0.9817703090206553
N,0.9566207627118644,0.8200971711392635,0.8902138324103642,0.9817703090206553
N,0.9566726733093067,0.8196203968578305,0.8902138324103642,0.9817703090206553
N,0.9566981332201951,0.8191209190391863,0.8902138324103642,0.9817703090206553
N,0.9567755459442248,0.8186441447577533,0.8902138324103642,0.9817703090206553
N,0.9568807583039057,0.8182127775507424,0.8902138324103642,0.9817703090206553
N,0.9568798320890566,0.8176905961948872,0.8902138324103642,0.9817703090206553
N,0.9569054898311844,0.817191118376243,0.8902138324103642,0.9817703090206553
N,0.9569045782235109,0.8166689370203878,0.8902138324103642,0.9817703090206553
N,0.9570101418798413,0.8162375698133769,0.8902138324103642,0.9817703090206553
N,0.9570625682550675,0.8157607955319439,0.8902138324103642,0.9817703090206553
N,0.9570606109067648,0.8152159106388776,0.8902138324103642,0.9817703090206553
N,0.9570864671680802,0.8147164328202334,0.8902138324103642,0.9817703090206553
N,0.9570856685348279,0.8141942514643782,0.8902138324103642,0.9817703090206553
N,0.957164984243978,0.8137401807201562,0.8902138324103642,0.9817703090206553
N,0.9572444016888462,0.8132861099759342,0.8902138324103642,0.9817703090206553
N,0.9573239210652976,0.8128320392317123,0.8902138324103642,0.9817703090206553
N,0.957323272863488,0.8123098578758571,0.8902138324103642,0.9817703090206553
N,0.957429718875502,0.8118784906688462,0.8902138324103642,0.9817703090206553
N,0.9574827198199647,0.8114017163874132,0.8902138324103642,0.9817703090206553
N,0.9575894053938127,0.8109703491804023,0.8902138324103642,0.9817703090206553
N,0.9576962283384302,0.8105389819733915,0.8902138324103642,0.9817703090206553
N,0.9577763461641703,0.8100849112291695,0.8902138324103642,0.9817703090206553
N,0.9579102874026323,0.8096762475593697,0.8902138324103642,0.9817703090206553
N,0.957963769284524,0.8091994732779367,0.8902138324103642,0.9817703090206553
N,0.957963530740681,0.8086772919220815,0.8902138324103642,0.9817703090206553
N,0.9579632918886916,0.8081551105662262,0.8902138324103642,0.9817703090206553
N,0.9580438412236764,0.8077010398220043,0.8902138324103642,0.9817703090206553
N,0.9580975478307734,0.8072242655405713,0.8902138324103642,0.9817703090206553
N,0.958232217009114,0.8068156018707715,0.8902138324103642,0.9817703090206553
N,0.9582861151583832,0.8063388275893384,0.8902138324103642,0.9817703090206553
N,0.9584210810518926,0.8059301639195386,0.8902138324103642,0.9817703090206553
N,0.9585021883611606,0.8054760931753168,0.8902138324103642,0.9817703090206553
N,0.9585563665855636,0.8049993188938837,0.8902138324103642,0.9817703090206553
N,0.9587458745874587,0.8046360622985061,0.8902138324103642,0.9817703090206553
N,0.9589085593633263,0.8042501021659174,0.8902138324103642,0.9817703090206553
N,0.958990194485075,0.8037960314216955,0.8902138324103642,0.9817703090206553
N,0.9590177264595869,0.8032965536030514,0.8902138324103642,0.9817703090206553
N,0.959153783563873,0.8028878899332516,0.8902138324103642,0.9817703090206553
N,0.9592085979482169,0.8024111156518186,0.8902138324103642,0.9817703090206553
N,0.9593177991418174,0.8019797484448077,0.8902138324103642,0.9817703090206553
N,0.9593727919995652,0.8015029741633747,0.8902138324103642,0.9817703090206553
N,0.9594550497634198,0.8010489034191527,0.8902138324103642,0.9817703090206553
N,0.9595102040816327,0.8005721291377197,0.8902138324103642,0.9817703090206553
N,0.9595654304852148,0.8000953548562866,0.8902138324103642,0.9817703090206553
N,0.9597297150019073,0.799709394723698,0.8902138324103642,0.9817703090206553
N,0.9597851573150117,0.799232620442265,0.8902138324103642,0.9817703090206553
N,0.9599225186882742,0.7988239567724652,0.8902138324103642,0.9817703090206553
N,0.96000546000546,0.7983698860282432,0.8902138324103642,0.9817703090206553
N,0.9600338742282686,0.7978704082095991,0.8902138324103642,0.9817703090206553
N,0.9600623257339675,0.7973709303909549,0.8902138324103642,0.9817703090206553
N,0.9601181683899557,0.7968941561095219,0.8902138324103642,0.9817703090206553
N,0.960174084414518,0.7964173818280889,0.8902138324103642,0.9817703090206553
N,0.9601479046836483,0.7958724969350225,0.8902138324103642,0.9817703090206553
N,0.9602313216028066,0.7954184261908005,0.8902138324103642,0.9817703090206553
N,0.9602874225220778,0.7949416519093675,0.8902138324103642,0.9817703090206553
N,0.9602887095888907,0.7944194705535123,0.8902138324103642,0.9817703090206553
N,0.960399846212995,0.7939881033465014,0.8902138324103642,0.9817703090206553
N,0.9604286892003298,0.7934886255278573,0.8902138324103642,0.9817703090206553
N,0.960430072045317,0.792966444172002,0.8902138324103642,0.9817703090206553
N,0.960458973088988,0.7924669663533579,0.8902138324103642,0.9817703090206553
N,0.9605154468858418,0.7919901920719248,0.8902138324103642,0.9817703090206553
N,0.9605444426075935,0.7914907142532807,0.8902138324103642,0.9817703090206553
N,0.9606010476978218,0.7910139399718477,0.8902138324103642,0.9817703090206553
N,0.9606301384980411,0.7905144621532034,0.8902138324103642,0.9817703090206553
N,0.960659267848269,0.7900149843345593,0.8902138324103642,0.9817703090206553
N,0.9607160616608652,0.7895382100531263,0.8902138324103642,0.9817703090206553
N,0.9608282191629347,0.7891068428461154,0.8902138324103642,0.9817703090206553
N,0.9608298755186722,0.7885846614902602,0.8902138324103642,0.9817703090206553
N,0.9608868958644743,0.7881078872088272,0.8902138324103642,0.9817703090206553
N,0.9610270899119162,0.7876992235390273,0.8902138324103642,0.9817703090206553
N,0.9611120350352015,0.7872451527948054,0.8902138324103642,0.9817703090206553
N,0.9611693570754979,0.7867683785133723,0.8902138324103642,0.9817703090206553
N,0.9612545101304468,0.7863143077691505,0.8902138324103642,0.9817703090206553
N,0.9613953230017219,0.7859056440993507,0.8902138324103642,0.9817703090206553
N,0.9614529486965705,0.7854288698179176,0.8902138324103642,0.9817703090206553
N,0.9616218922075755,0.785042909685329,0.8902138324103642,0.9817703090206553
N,0.9617910613903267,0.7846569495527403,0.8902138324103642,0.9817703090206553
N,0.9619047619047619,0.7842255823457295,0.8902138324103642,0.9817703090206553
N,0.9619628824611269,0.7837488080642964,0.8902138324103642,0.9817703090206553
N,0.9619653114717528,0.7832266267084411,0.8902138324103642,0.9817703090206553
N,0.9621351637926223,0.7828406665758525,0.8902138324103642,0.9817703090206553
N,0.962193555592785,0.7823638922944195,0.8902138324103642,0.9817703090206553
N,0.9622789125150186,0.7818871180129864,0.8902138324103642,0.9817703090206553
N,0.9624213616664337,0.7814784543431866,0.8902138324103642,0.9817703090206553
N,0.9624241067681374,0.7809562729873314,0.8902138324103642,0.9817703090206553
N,0.9624548534311392,0.7804567951686873,0.8902138324103642,0.9817703090206553
N,0.9625416748382035,0.7800027244244653,0.8902138324103642,0.9817703090206553
N,0.9626286130813873,0.7795486536802434,0.8902138324103642,0.9817703090206553
N,0.9627998316734465,0.7791626935476548,0.8902138324103642,0.9817703090206553
N,0.9628870610033408,0.7787086228034328,0.8902138324103642,0.9817703090206553
N,0.9629744079557266,0.7782545520592108,0.8902138324103642,0.9817703090206553
N,0.9630056503527956,0.7777550742405667,0.8902138324103642,0.9817703090206553
N,0.963120288061213,0.7773010034963447,0.8902138324103642,0.9817703090206553
N,0.9632079720752168,0.7768469327521228,0.8902138324103642,0.9817703090206553
N,0.9632676056338029,0.7763701584706897,0.8902138324103642,0.9817703090206553
N,0.9634118840906528,0.7759614948008899,0.8902138324103642,0.9817703090206553
N,0.9634717364323593,0.7754847205194569,0.8902138324103642,0.9817703090206553
N,0.963531669865643,0.7750079462380239,0.8902138324103642,0.9817703090206553
N,0.963563439159417,0.7745084684193797,0.8902138324103642,0.9817703090206553
N,0.9636517806670435,0.7740543976751578,0.8902138324103642,0.9817703090206553
N,0.9637685258513407,0.773623030468147,0.8902138324103642,0.9817703090206553
N,0.9637994961931449,0.7731008491122917,0.8902138324103642,0.9817703090206553
N,0.9638598578185629,0.7726240748308586,0.8902138324103642,0.9817703090206553
N,0.963891959300513,0.7721245970122145,0.8902138324103642,0.9817703090206553
N,0.9639808275901188,0.7716705262679926,0.8902138324103642,0.9817703090206553
N,0.9640698169433801,0.7712164555237706,0.8902138324103642,0.9817703090206553
N,0.9641305273920082,0.7707396812423376,0.8902138324103642,0.9817703090206553
N,0.9642765794185353,0.7703310175725377,0.8902138324103642,0.9817703090206553
N,0.9643090748798453,0.7698315397538936,0.8902138324103642,0.9817703090206553
N,0.964341614730072,0.7693320619352495,0.8902138324103642,0.9817703090206553
N,0.9643457212017656,0.7688098805793943,0.8902138324103642,0.9817703090206553
N,0.9644353252970848,0.7683558098351723,0.8902138324103642,0.9817703090206553
N,0.9645250520432316,0.7679017390909504,0.8902138324103642,0.9817703090206553
N,0.9646434380618097,0.7674703718839395,0.8902138324103642,0.9817703090206553
N,0.9646763185699192,0.7669708940652954,0.8902138324103642,0.9817703090206553
N,0.9647949707101015,0.7665395268582845,0.8902138324103642,0.9817703090206553
N,0.9648851905864859,0.7660854561140625,0.8902138324103642,0.9817703090206553
N,0.9649183048616476,0.7655859782954184,0.8902138324103642,0.9817703090206553
N,0.9650373679237179,0.7651546110884075,0.8902138324103642,0.9817703090206553
N,0.9650706323963437,0.7646551332697634,0.8902138324103642,0.9817703090206553
N,0.9651612903225807,0.7642010625255414,0.8902138324103642,0.9817703090206553
N,0.9651659923675074,0.7636788811696862,0.8902138324103642,0.9817703090206553
N,0.9652855543113102,0.7632475139626754,0.8902138324103642,0.9817703090206553
N,0.9653190816883602,0.7627480361440312,0.8902138324103642,0.9817703090206553
N,0.9652951493717473,0.7622031512509649,0.8902138324103642,0.9817703090206553
N,0.9653862753560639,0.761749080506743,0.8902138324103642,0.9817703090206553
N,0.9654487345599032,0.76127230622531,0.8902138324103642,0.9817703090206553
N,0.9655112801452157,0.7607955319438768,0.8902138324103642,0.9817703090206553
N,0.965660409999135,0.7603868682740771,0.8902138324103642,0.9817703090206553
N,0.9656943362474394,0.759887390455433,0.8902138324103642,0.9817703090206553
N,0.9658437996246572,0.7594787267856332,0.8902138324103642,0.9817703090206553
N,0.9659356851867903,0.7590246560414112,0.8902138324103642,0.9817703090206553
N,0.9659698730736982,0.7585251782227671,0.8902138324103642,0.9817703090206553
N,0.9660619737869977,0.7580711074785451,0.8902138324103642,0.9817703090206553
N,0.9660962969396913,0.757571629659901,0.8902138324103642,0.9817703090206553
N,0.9661016949152542,0.7570494483040457,0.8902138324103642,0.9817703090206553
N,0.9662520657562842,0.756640784634246,0.8902138324103642,0.9817703090206553
N,0.9662575797139292,0.7561186032783908,0.8902138324103642,0.9817703090206553
N,0.9663502017826554,0.7556645325341689,0.8902138324103642,0.9817703090206553
N,0.9664138992998054,0.7551877582527358,0.8902138324103642,0.9817703090206553
N,0.9664776857101323,0.7547109839713028,0.8902138324103642,0.9817703090206553
N,0.9664833726106311,0.7541888026154475,0.8902138324103642,0.9817703090206553
N,0.9665181820828602,0.7536893247968034,0.8902138324103642,0.9817703090206553
N,0.9665239052530373,0.7531671434409482,0.8902138324103642,0.9817703090206553
N,0.9666462579083939,0.7527357762339373,0.8902138324103642,0.9817703090206553
N,0.9667104303428155,0.7522590019525042,0.8902138324103642,0.9817703090206553
N,0.9666871040261599,0.7517141170594379,0.8902138324103642,0.9817703090206553
N,0.9668098284979695,0.751282749852427,0.8902138324103642,0.9817703090206553
N,0.9669327251995439,0.7508513826454162,0.8902138324103642,0.9817703090206553
N,0.966997279030984,0.7503746083639831,0.8902138324103642,0.9817703090206553
N,0.9671204801639585,0.7499432411569723,0.8902138324103642,0.9817703090206553
N,0.9672145556825174,0.7494891704127503,0.8902138324103642,0.9817703090206553
N,0.9674846805641071,0.749171320891795,0.8902138324103642,0.9817703090206553
N,0.9675204647478215,0.7486718430731508,0.8902138324103642,0.9817703090206553
N,0.9676737426230952,0.7482631794033511,0.8902138324103642,0.9817703090206553
N,0.9677684736300867,0.7478091086591291,0.8902138324103642,0.9817703090206553
N,0.9678633383317162,0.7473550379149071,0.8902138324103642,0.9817703090206553
N,0.9679289139965281,0.7468782636334741,0.8902138324103642,0.9817703090206553
N,0.9680534699525954,0.7464468964264632,0.8902138324103642,0.9817703090206553
N,0.9680898081852736,0.7459474186078191,0.8902138324103642,0.9817703090206553
N,0.9682736252395695,0.7455614584752305,0.8902138324103642,0.9817703090206553
N,0.9683101708418164,0.7450619806565862,0.8902138324103642,0.9817703090206553
N,0.9684353500457673,0.7446306134495755,0.8902138324103642,0.9817703090206553
N,0.9684425139615283,0.7441084320937202,0.8902138324103642,0.9817703090206553
N,0.9684792572222715,0.743608954275076,0.8902138324103642,0.9817703090206553
N,0.968545642846575,0.743132179993643,0.8902138324103642,0.9817703090206553
N,0.9687009564419177,0.7427235163238433,0.8902138324103642,0.9817703090206553
N,0.9687370355005037,0.742201334967988,0.8902138324103642,0.9817703090206553
N,0.9687740940632228,0.7417018571493439,0.8902138324103642,0.9817703090206553
N,0.96887055611609,0.7412477864051219,0.8902138324103642,0.9817703090206553
N,0.9690562451743184,0.7408618262725333,0.8902138324103642,0.9817703090206553
N,0.9690638930163448,0.740339644916678,0.8902138324103642,0.9817703090206553
N,0.9691598513011153,0.7398628706352449,0.8902138324103642,0.9817703090206553
N,0.969227106336121,0.7393860963538119,0.8902138324103642,0.9817703090206553
N,0.9692944575155612,0.7389093220723789,0.8902138324103642,0.9817703090206553
N,0.9693619050457485,0.7384325477909458,0.8902138324103642,0.9817703090206553
N,0.9694592740612604,0.7379784770467239,0.8902138324103642,0.9817703090206553
N,0.9695567825697657,0.7375244063025019,0.8902138324103642,0.9817703090206553
N,0.9695648278127893,0.7370022249466467,0.8902138324103642,0.9817703090206553
N,0.9696625519323311,0.7365481542024247,0.8902138324103642,0.9817703090206553
N,0.9697604163550982,0.7360940834582028,0.8902138324103642,0.9817703090206553
N,0.9697985572749858,0.7355946056395587,0.8902138324103642,0.9817703090206553
N,0.9698367530327991,0.7350951278209145,0.8902138324103642,0.9817703090206553
N,0.9698750037468901,0.7345956500022703,0.8902138324103642,0.9817703090206553
N,0.969943306236314,0.7341188757208373,0.8902138324103642,0.9817703090206553
N,0.9700717437636959,0.7336875085138265,0.8902138324103642,0.9817703090206553
N,0.9701102466280153,0.7331880306951823,0.8902138324103642,0.9817703090206553
N,0.9701788666766872,0.7327112564137492,0.8902138324103642,0.9817703090206553
N,0.9702475858127012,0.7322344821323162,0.8902138324103642,0.9817703090206553
N,0.9702862991841527,0.7317350043136721,0.8902138324103642,0.9817703090206553
N,0.9703551953725184,0.731258230032239,0.8902138324103642,0.9817703090206553
N,0.9704543398956857,0.7308041592880171,0.8902138324103642,0.9817703090206553
N,0.9705837984613064,0.7303727920810063,0.8902138324103642,0.9817703090206553
N,0.9706832523172609,0.7299187213367843,0.8902138324103642,0.9817703090206553
N,0.9707224219717799,0.7294192435181401,0.8902138324103642,0.9817703090206553
N,0.9707616484745866,0.728919765699496,0.8902138324103642,0.9817703090206553
N,0.9707706738479228,0.7283975843436408,0.8902138324103642,0.9817703090206553
N,0.9708705526116579,0.7279435135994188,0.8902138324103642,0.9817703090206553
N,0.9710614829853641,0.7275575534668302,0.8902138324103642,0.9817703090206553
N,0.9711920429390181,0.7271261862598193,0.8902138324103642,0.9817703090206553
N,0.9711710618153128,0.7265813013667529,0.8902138324103642,0.9817703090206553
N,0.9713010204081632,0.726127230622531,0.8902138324103642,0.9817703090206553
N,0.9714016532944323,0.725673159878309,0.8902138324103642,0.9817703090206553
N,0.9714111922141119,0.7251509785224538,0.8902138324103642,0.9817703090206553
N,0.971481616751887,0.7246742042410208,0.8902138324103642,0.9817703090206553
N,0.971521686159844,0.7241747264223766,0.8902138324103642,0.9817703090206553
N,0.9715313338210193,0.7236525450665213,0.8902138324103642,0.9817703090206553
N,0.9716020009760858,0.7231757707850883,0.8902138324103642,0.9817703090206553
N,0.9717338217338217,0.7227444035780775,0.8902138324103642,0.9817703090206553
N,0.9718047409579668,0.7222676292966445,0.8902138324103642,0.9817703090206553
N,0.9719674737099535,0.7218589656268447,0.8902138324103642,0.9817703090206553
N,0.9720386686245717,0.7213821913454116,0.8902138324103642,0.9817703090206553
N,0.9721711976487877,0.7209508241384007,0.8902138324103642,0.9817703090206553
N,0.9721813725490196,0.7204286427825455,0.8902138324103642,0.9817703090206553
N,0.9722222222222222,0.7199291649639014,0.8902138324103642,0.9817703090206553
N,0.9722324496809033,0.7194069836080461,0.8902138324103642,0.9817703090206553
N,0.9723348071726848,0.7189529128638242,0.8902138324103642,0.9817703090206553
N,0.9724373156342183,0.7184988421196022,0.8902138324103642,0.9817703090206553
N,0.9725092250922509,0.7180220678381691,0.8902138324103642,0.9817703090206553
N,0.9726735598227474,0.7176134041683694,0.8902138324103642,0.9817703090206553
N,0.9727457501847746,0.7171366298869364,0.8902138324103642,0.9817703090206553
N,0.972879684418146,0.7167052626799255,0.8902138324103642,0.9817703090206553
N,0.9729212928694794,0.7162057848612814,0.8902138324103642,0.9817703090206553
N,0.9731172839506173,0.7158198247286928,0.8902138324103642,0.9817703090206553
N,0.9731274131274131,0.7152749398356264,0.8902138324103642,0.9817703090206553
N,0.9732620320855615,0.7148435726286155,0.8902138324103642,0.9817703090206553
N,0.9733349831410276,0.7143667983471825,0.8902138324103642,0.9817703090206553
N,0.9734080425966628,0.7138900240657494,0.8902138324103642,0.9817703090206553
N,0.9735121905883082,0.7134359533215275,0.8902138324103642,0.9817703090206553
N,0.9736474965121686,0.7130045861145167,0.8902138324103642,0.9817703090206553
N,0.9736588998169464,0.7124824047586614,0.8902138324103642,0.9817703090206553
N,0.9737013692675506,0.7119829269400173,0.8902138324103642,0.9817703090206553
N,0.9738060466706024,0.7115288561957953,0.8902138324103642,0.9817703090206553
N,0.9739419758077055,0.7110974889887844,0.8902138324103642,0.9817703090206553
N,0.9739847518282246,0.7105980111701403,0.8902138324103642,0.9817703090206553
N,0.9741210177197845,0.7101666439631295,0.8902138324103642,0.9817703090206553
N,0.9741951569171315,0.7096898696816965,0.8902138324103642,0.9817703090206553
N,0.9742382185073137,0.7091903918630522,0.8902138324103642,0.9817703090206553
N,0.974281344611255,0.7086909140444081,0.8902138324103642,0.9817703090206553
N,0.9742933000156176,0.7081687326885528,0.8902138324103642,0.9817703090206553
N,0.9743990497327374,0.707714661944331,0.8902138324103642,0.9817703090206553
N,0.9744728774322717,0.7072151841256867,0.8902138324103642,0.9817703090206553
N,0.9746102310437669,0.706783816918676,0.8902138324103642,0.9817703090206553
N,0.9745911397957265,0.7062389320256096,0.8902138324103642,0.9817703090206553
N,0.9747287891139399,0.7058075648185987,0.8902138324103642,0.9817703090206553
N,0.9748658571025134,0.7053534940743768,0.8902138324103642,0.9817703090206553
N,0.9749097189511697,0.7048540162557326,0.8902138324103642,0.9817703090206553
N,0.9750164985387009,0.7043999455115106,0.8902138324103642,0.9817703090206553
N,0.975059755944144,0.7038777641556555,0.8902138324103642,0.9817703090206553
N,0.9751038650383986,0.7033782863370113,0.8902138324103642,0.9817703090206553
N,0.975116542774348,0.702856104981156,0.8902138324103642,0.9817703090206553
N,0.9751607615685286,0.7023566271625119,0.8902138324103642,0.9817703090206553
N,0.9752681388012618,0.70190255641829,0.8902138324103642,0.9817703090206553
N,0.9753125394620533,0.7014030785996458,0.8902138324103642,0.9817703090206553
N,0.9753886010362695,0.7009263043182128,0.8902138324103642,0.9817703090206553
N,0.9755280131529025,0.7004949371112019,0.8902138324103642,0.9817703090206553
N,0.9756043538792558,0.7000181628297689,0.8902138324103642,0.9817703090206553
N,0.9757124762507916,0.6995640920855469,0.8902138324103642,0.9817703090206553
N,0.9756940043097985,0.6990192071924806,0.8902138324103642,0.9817703090206553
N,0.9757381624433098,0.6984970258366253,0.8902138324103642,0.9817703090206553
N,0.9757514203192941,0.6979748444807701,0.8902138324103642,0.9817703090206553
N,0.9757329352348887,0.6974299595877038,0.8902138324103642,0.9817703090206553
N,0.975809015194863,0.6969304817690596,0.8902138324103642,0.9817703090206553
N,0.975822357956353,0.6964083004132043,0.8902138324103642,0.9817703090206553
N,0.9758038841133397,0.6958634155201381,0.8902138324103642,0.9817703090206553
N,0.9758172433569108,0.6953412341642828,0.8902138324103642,0.9817703090206553
N,0.9758943944901474,0.6948644598828497,0.8902138324103642,0.9817703090206553
N,0.9759397536537111,0.6943649820642056,0.8902138324103642,0.9817703090206553
N,0.9760482866541054,0.6938882077827726,0.8902138324103642,0.9817703090206553
N,0.9761577551216082,0.6934341370385506,0.8902138324103642,0.9817703090206553
N,0.9762034223572685,0.6929346592199065,0.8902138324103642,0.9817703090206553
N,0.9762491597580103,0.6924351814012624,0.8902138324103642,0.9817703090206553
N,0.9762629336579428,0.6919130000454071,0.8902138324103642,0.9817703090206553
N,0.9763087872279037,0.6914135222267629,0.8902138324103642,0.9817703090206553
N,0.9763867945715294,0.6909367479453299,0.8902138324103642,0.9817703090206553
N,0.9764007063734147,0.6904145665894746,0.8902138324103642,0.9817703090206553
N,0.9765110375630603,0.6899604958452527,0.8902138324103642,0.9817703090206553
N,0.976557224169534,0.6894610180266085,0.8902138324103642,0.9817703090206553
N,0.9767000289640524,0.6890296508195977,0.8902138324103642,0.9817703090206553
N,0.9767464330574254,0.6885301730009535,0.8902138324103642,0.9817703090206553
N,0.9768573730862208,0.6880761022567315,0.8902138324103642,0.9817703090206553
N,0.9768717138156834,0.6875539209008763,0.8902138324103642,0.9817703090206553
N,0.9770152048293895,0.6871225536938655,0.8902138324103642,0.9817703090206553
N,0.9772235324524279,0.6867365935612768,0.8902138324103642,0.9817703090206553
N,0.9772705228103075,0.6862371157426327,0.8902138324103642,0.9817703090206553
N,0.977285228927358,0.6857149343867774,0.8902138324103642,0.9817703090206553
N,0.9772675755318805,0.6851700494937111,0.8902138324103642,0.9817703090206553
N,0.9772823022328807,0.6846478681378558,0.8902138324103642,0.9817703090206553
N,0.9773294846430772,0.6841483903192117,0.8902138324103642,0.9817703090206553
N,0.9774416566587686,0.6836943195749898,0.8902138324103642,0.9817703090206553
N,0.9774565535163229,0.6831721382191346,0.8902138324103642,0.9817703090206553
N,0.9775039823152694,0.6826726604004903,0.8902138324103642,0.9817703090206553
N,0.9776165533396233,0.6822185896562685,0.8902138324103642,0.9817703090206553
N,0.9776967407938006,0.6817418153748354,0.8902138324103642,0.9817703090206553
N,0.9778096386327348,0.6812877446306135,0.8902138324103642,0.9817703090206553
N,0.9779227131909343,0.6808336738863915,0.8902138324103642,0.9817703090206553
N,0.9780686008942266,0.6804023066793806,0.8902138324103642,0.9817703090206553
N,0.9781493941274455,0.6799255323979476,0.8902138324103642,0.9817703090206553
N,0.9781649396920864,0.6794033510420924,0.8902138324103642,0.9817703090206553
N,0.9782786483038373,0.6789492802978704,0.8902138324103642,0.9817703090206553
N,0.9783925356032084,0.6784952095536485,0.8902138324103642,0.9817703090206553
N,0.978440366972477,0.6779730281977933,0.8902138324103642,0.9817703090206553
N,0.9784233997901364,0.6774281433047269,0.8902138324103642,0.9817703090206553
N,0.978472039905487,0.6769286654860828,0.8902138324103642,0.9817703090206553
N,0.9785535995796112,0.6764518912046497,0.8902138324103642,0.9817703090206553
N,0.9787010255061793,0.6760205239976388,0.8902138324103642,0.9817703090206553
N,0.9789144736842105,0.6756345638650502,0.8902138324103642,0.9817703090206553
N,0.9790294969712932,0.6751804931208282,0.8902138324103642,0.9817703090206553
N,0.9790458618871903,0.6746583117649729,0.8902138324103642,0.9817703090206553
N,0.9791611711949354,0.674204241020751,0.8902138324103642,0.9817703090206553
N,0.9792106652587117,0.6737047632021069,0.8902138324103642,0.9817703090206553
N,0.9793262879788639,0.6732506924578849,0.8902138324103642,0.9817703090206553
N,0.9793098889476467,0.6727058075648186,0.8902138324103642,0.9817703090206553
N,0.9794257740142895,0.6722517368205967,0.8902138324103642,0.9817703090206553
N,0.979641154661017,0.671865776688008,0.8902138324103642,0.9817703090206553
N,0.9796580970050358,0.6713435953321527,0.8902138324103642,0.9817703090206553
N,0.9797082228116711,0.6708441175135086,0.8902138324103642,0.9817703090206553
N,0.9797916113618264,0.6703673432320756,0.8902138324103642,0.9817703090206553
N,0.9800079702444209,0.6699813830994868,0.8902138324103642,0.9817703090206553
N,0.9799920233980325,0.6694364982064206,0.8902138324103642,0.9817703090206553
N,0.9800093134646088,0.6689143168505653,0.8902138324103642,0.9817703090206553
N,0.9801264980026632,0.6684602461063434,0.8902138324103642,0.9817703090206553
N,0.9802105543710021,0.6679834718249104,0.8902138324103642,0.9817703090206553
N,0.9804274615718048,0.6675748081551106,0.8902138324103642,0.9817703090206553
N,0.9805118964193946,0.6670980338736775,0.8902138324103642,0.9817703090206553
N,0.9806632601943693,0.6666666666666666,0.8902138324103642,0.9817703090206553
N,0.9807480196530632,0.6661898923852336,0.8902138324103642,0.9817703090206553
N,0.9807994647934437,0.6656904145665895,0.8902138324103642,0.9817703090206553
N,0.9809514244585049,0.6652590473595786,0.8902138324103642,0.9817703090206553
N,0.981036620095822,0.6647822730781455,0.8902138324103642,0.9817703090206553
N,0.981054890520739,0.6642600917222903,0.8902138324103642,0.9817703090206553
N,0.981106748548609,0.6637606139036462,0.8902138324103642,0.9817703090206553
N,0.9811922753988245,0.6632838396222132,0.8902138324103642,0.9817703090206553
N,0.9812094524185687,0.6627162511919357,0.8902138324103642,0.9817703090206553
N,0.9812615643397813,0.6622167733732915,0.8902138324103642,0.9817703090206553
N,0.9813137604794452,0.6617172955546474,0.8902138324103642,0.9817703090206553
N,0.9813323449135695,0.6611951141987922,0.8902138324103642,0.9817703090206553
N,0.981350959430749,0.6606729328429369,0.8902138324103642,0.9817703090206553
N,0.9814033548212899,0.6601734550242928,0.8902138324103642,0.9817703090206553
N,0.9814896132410066,0.6596966807428597,0.8902138324103642,0.9817703090206553
N,0.9816098171123356,0.6592426099986378,0.8902138324103642,0.9817703090206553
N,0.9816625503264877,0.6587431321799937,0.8902138324103642,0.9817703090206553
N,0.9817153692479599,0.6582436543613495,0.8902138324103642,0.9817703090206553
N,0.9817343861194889,0.6577214730054942,0.8902138324103642,0.9817703090206553
N,0.9817873494997457,0.6572219951868501,0.8902138324103642,0.9817703090206553
N,0.9819082855300227,0.6567679244426282,0.8902138324103642,0.9817703090206553
N,0.9820633896117131,0.6563365572356173,0.8902138324103642,0.9817703090206553
N,0.9821507496685139,0.6558597829541842,0.8902138324103642,0.9817703090206553
N,0.9821361733982102,0.6553148980611179,0.8902138324103642,0.9817703090206553
N,0.982189681593734,0.6548154202424737,0.8902138324103642,0.9817703090206553
N,0.9822432773252445,0.6543159424238296,0.8902138324103642,0.9817703090206553
N,0.9823651806119317,0.6538618716796076,0.8902138324103642,0.9817703090206553
N,0.9823507322568532,0.6533169867865414,0.8902138324103642,0.9817703090206553
N,0.9824045918890294,0.6528175089678973,0.8902138324103642,0.9817703090206553
N,0.9824243460420584,0.652295327612042,0.8902138324103642,0.9817703090206553
N,0.9826146475017111,0.6518639604050311,0.8902138324103642,0.9817703090206553
N,0.9826688587477737,0.6513644825863869,0.8902138324103642,0.9817703090206553
N,0.9826888797477032,0.6508423012305318,0.8902138324103642,0.9817703090206553
N,0.9827432413887746,0.6503428234118875,0.8902138324103642,0.9817703090206553
N,0.9828320285675045,0.6498660491304545,0.8902138324103642,0.9817703090206553
N,0.9828522336769759,0.6493438677745993,0.8902138324103642,0.9817703090206553
N,0.9829756500206356,0.6488897970303773,0.8902138324103642,0.9817703090206553
N,0.9830304281977145,0.6483903192117332,0.8902138324103642,0.9817703090206553
N,0.9830852969546645,0.6478908413930891,0.8902138324103642,0.9817703090206553
N,0.9830713005102745,0.6473459565000227,0.8902138324103642,0.9817703090206553
N,0.9831262939958593,0.6468464786813786,0.8902138324103642,0.9817703090206553
N,0.9832504489570383,0.6463924079371566,0.8902138324103642,0.9817703090206553
N,0.9833056822895064,0.6458929301185125,0.8902138324103642,0.9817703090206553
N,0.9833610073336101,0.6453934522998683,0.8902138324103642,0.9817703090206553
N,0.9833471818307714,0.644848567406802,0.8902138324103642,0.9817703090206553
N,0.9833679833679834,0.6443263860509467,0.8902138324103642,0.9817703090206553
N,0.9833888195311417,0.6438042046950915,0.8902138324103642,0.9817703090206553
N,0.9835138136887408,0.6433501339508696,0.8902138324103642,0.9817703090206553
N,0.9835695428650827,0.6428506561322254,0.8902138324103642,0.9817703090206553
N,0.9836601307189542,0.6423738818507924,0.8902138324103642,0.9817703090206553
N,0.9836812804453723,0.6418517004949371,0.8902138324103642,0.9817703090206553
N,0.983841760690904,0.6414203332879262,0.8902138324103642,0.9817703090206553
N,0.9839676564896138,0.6409662625437043,0.8902138324103642,0.9817703090206553
N,0.9839891167852658,0.640444081187849,0.8902138324103642,0.9817703090206553
N,0.9841851696690407,0.6400354175180493,0.8902138324103642,0.9817703090206553
N,0.9842068483577917,0.639513236162194,0.8902138324103642,0.9817703090206553
N,0.9842280118901906,0.6389683512691278,0.8902138324103642,0.9817703090206553
N,0.9842497637464562,0.6384461699132725,0.8902138324103642,0.9817703090206553
N,0.9843416120783269,0.6379693956318394,0.8902138324103642,0.9817703090206553
N,0.9843634961259334,0.6374472142759842,0.8902138324103642,0.9817703090206553
N,0.9844205059826661,0.63694773645734,0.8902138324103642,0.9817703090206553
N,0.9845127304653205,0.636470962175907,0.8902138324103642,0.9817703090206553
N,0.9845348142420302,0.6359487808200518,0.8902138324103642,0.9817703090206553
N,0.9847328244274809,0.635540117150252,0.8902138324103642,0.9817703090206553
N,0.9848255465971905,0.6350633428688189,0.8902138324103642,0.9817703090206553
N,0.9848479509496458,0.6345411615129637,0.8902138324103642,0.9817703090206553
N,0.9850114618233116,0.6341097943059528,0.8902138324103642,0.9817703090206553
N,0.9851046556775264,0.6336330200245198,0.8902138324103642,0.9817703090206553
N,0.9851626806090367,0.6331335422058757,0.8902138324103642,0.9817703090206553
N,0.985185447088357,0.6326113608500205,0.8902138324103642,0.9817703090206553
N,0.9851728652818571,0.6320664759569541,0.8902138324103642,0.9817703090206553
N,0.9851602620860634,0.6315215910638877,0.8902138324103642,0.9817703090206553
N,0.9852539789443834,0.6310448167824547,0.8902138324103642,0.9817703090206553
N,0.9852414233511902,0.6304999318893884,0.8902138324103642,0.9817703090206553
N,0.9853708766821716,0.6300458611451664,0.8902138324103642,0.9817703090206553
N,0.9854650129713209,0.6295690868637334,0.8902138324103642,0.9817703090206553
N,0.9855593099768807,0.6290923125823004,0.8902138324103642,0.9817703090206553
N,0.9856893667010787,0.6286382418380784,0.8902138324103642,0.9817703090206553
N,0.9857840168169024,0.6281614675566454,0.8902138324103642,0.9817703090206553
N,0.9858431694183932,0.6276619897380011,0.8902138324103642,0.9817703090206553
N,0.9859024233555801,0.627162511919357,0.8902138324103642,0.9817703090206553
N,0.9860332202178961,0.6267084411751351,0.8902138324103642,0.9817703090206553
N,0.986056987594294,0.6261862598192799,0.8902138324103642,0.9817703090206553
N,0.9861881418399112,0.6257321890750579,0.8902138324103642,0.9817703090206553
N,0.9863195215413817,0.6252781183308359,0.8902138324103642,0.9817703090206553
N,0.9863077529660561,0.6247332334377697,0.8902138324103642,0.9817703090206553
N,0.9863318385650224,0.6242110520819144,0.8902138324103642,0.9817703090206553
N,0.9863918710279703,0.6237115742632702,0.8902138324103642,0.9817703090206553
N,0.9864520070435189,0.623212096444626,0.8902138324103642,0.9817703090206553
N,0.9864403121965255,0.6226672115515597,0.8902138324103642,0.9817703090206553
N,0.9864285971417258,0.6221223266584934,0.8902138324103642,0.9817703090206553
N,0.9864889209151504,0.6216228488398492,0.8902138324103642,0.9817703090206553
N,0.9864772276513649,0.6210779639467829,0.8902138324103642,0.9817703090206553
N,0.9865376980546432,0.6205784861281388,0.8902138324103642,0.9817703090206553
N,0.9865260268034534,0.6200336012350725,0.8902138324103642,0.9817703090206553
N,0.9865143352977331,0.6194887163420061,0.8902138324103642,0.9817703090206553
N,0.9865388094807309,0.6189665349861508,0.8902138324103642,0.9817703090206553
N,0.9866357611097026,0.6184897607047178,0.8902138324103642,0.9817703090206553
N,0.9866966324718164,0.6179902828860736,0.8902138324103642,0.9817703090206553
N,0.9867938903602655,0.6175135086046406,0.8902138324103642,0.9817703090206553
N,0.9868913177675297,0.6170367343232076,0.8902138324103642,0.9817703090206553
N,0.9868798836998001,0.6164918494301412,0.8902138324103642,0.9817703090206553
N,0.9868684296678913,0.6159469645370749,0.8902138324103642,0.9817703090206553
N,0.9868569556194706,0.6154020796440085,0.8902138324103642,0.9817703090206553
N,0.9868819006668367,0.6148798982881533,0.8902138324103642,0.9817703090206553
N,0.9869068893832744,0.614357716932298,0.8902138324103642,0.9817703090206553
N,0.9869684248950539,0.6138582391136539,0.8902138324103642,0.9817703090206553
N,0.9869569982828541,0.6133133542205875,0.8902138324103642,0.9817703090206553
N,0.9870552528613742,0.6128365799391545,0.8902138324103642,0.9817703090206553
N,0.9871170808476375,0.6123371021205104,0.8902138324103642,0.9817703090206553
N,0.9871423861679915,0.6118149207646552,0.8902138324103642,0.9817703090206553
N,0.9871677360219981,0.6112927394087999,0.8902138324103642,0.9817703090206553
N,0.9871564346262522,0.6107478545157335,0.8902138324103642,0.9817703090206553
N,0.98725529804973,0.6102710802343005,0.8902138324103642,0.9817703090206553
N,0.9873910965702313,0.6098170094900786,0.8902138324103642,0.9817703090206553
N,0.9874167555833548,0.6092948281342233,0.8902138324103642,0.9817703090206553
N,0.9874424599521266,0.6087726467783681,0.8902138324103642,0.9817703090206553
N,0.987505068003391,0.6082731689597239,0.8902138324103642,0.9817703090206553
N,0.9875308960785038,0.6077509876038687,0.8902138324103642,0.9817703090206553
N,0.987556769929476,0.6072288062480135,0.8902138324103642,0.9817703090206553
N,0.9875457333973909,0.6066839213549471,0.8902138324103642,0.9817703090206553
N,0.9875716663584243,0.6061617399990918,0.8902138324103642,0.9817703090206553
N,0.9875976454037244,0.6056395586432366,0.8902138324103642,0.9817703090206553
N,0.9876607255345167,0.6051400808245925,0.8902138324103642,0.9817703090206553
N,0.9877239179616512,0.6046406030059484,0.8902138324103642,0.9817703090206553
N,0.9877129811797023,0.604095718112882,0.8902138324103642,0.9817703090206553
N,0.9877391788965261,0.6035735367570267,0.8902138324103642,0.9817703090206553
N,0.9877654233758506,0.6030513554011715,0.8902138324103642,0.9817703090206553
N,0.9878289351248744,0.6025518775825274,0.8902138324103642,0.9817703090206553
N,0.9878180531237194,0.602006992689461,0.8902138324103642,0.9817703090206553
N,0.9878817256422685,0.6015075148708169,0.8902138324103642,0.9817703090206553
N,0.9879081918268333,0.6009853335149616,0.8902138324103642,0.9817703090206553
N,0.9879720593179186,0.6004858556963175,0.8902138324103642,0.9817703090206553
N,0.9880734287957528,0.6000090814148844,0.8902138324103642,0.9817703090206553
N,0.9881749803540022,0.5995323071334514,0.8902138324103642,0.9817703090206553
N,0.9881643507247463,0.598987422240385,0.8902138324103642,0.9817703090206553
N,0.9881911902530459,0.5984652408845298,0.8902138324103642,0.9817703090206553
N,0.988255600165097,0.5979657630658857,0.8902138324103642,0.9817703090206553
N,0.9883201261877043,0.5974662852472415,0.8902138324103642,0.9817703090206553
N,0.9883471788895989,0.5969441038913863,0.8902138324103642,0.9817703090206553
N,0.9883366567590955,0.5963992189983199,0.8902138324103642,0.9817703090206553
N,0.9883261156091132,0.5958543341052536,0.8902138324103642,0.9817703090206553
N,0.988428630658475,0.5953775598238206,0.8902138324103642,0.9817703090206553
N,0.9885690572301656,0.5949234890795986,0.8902138324103642,0.9817703090206553
N,0.9885964581051996,0.5944013077237433,0.8902138324103642,0.9817703090206553
N,0.9886239086889149,0.5938791263678881,0.8902138324103642,0.9817703090206553
N,0.988689237752979,0.593379648549244,0.8902138324103642,0.9817703090206553
N,0.9887168225360645,0.5928574671933887,0.8902138324103642,0.9817703090206553
N,0.9887444574980104,0.5923352858375335,0.8902138324103642,0.9817703090206553
N,0.9887342108257785,0.5917904009444671,0.8902138324103642,0.9817703090206553
N,0.9887239454800866,0.5912455160514009,0.8902138324103642,0.9817703090206553
N,0.9887896636899107,0.5907460382327566,0.8902138324103642,0.9817703090206553
N,0.9888174660530219,0.5902238568769014,0.8902138324103642,0.9817703090206553
N,0.9889976015532798,0.5897924896698906,0.8902138324103642,0.9817703090206553
N,0.9890256449338871,0.5892703083140354,0.8902138324103642,0.9817703090206553
N,0.9890155993744995,0.588725423420969,0.8902138324103642,0.9817703090206553
N,0.9890818858560794,0.5882259456023249,0.8902138324103642,0.9817703090206553
N,0.9890718734477093,0.5876810607092585,0.8902138324103642,0.9817703090206553
N,0.9891383332695911,0.5871815828906144,0.8902138324103642,0.9817703090206553
N,0.9892049152088198,0.5866821050719702,0.8902138324103642,0.9817703090206553
N,0.9893099352465612,0.5862053307905372,0.8902138324103642,0.9817703090206553
N,0.9894151486097795,0.5857285565091042,0.8902138324103642,0.9817703090206553
N,0.9894437833480481,0.5852063751532489,0.8902138324103642,0.9817703090206553
N,0.9894724708956084,0.5846841937973937,0.8902138324103642,0.9817703090206553
N,0.9895396684997885,0.5841847159787494,0.8902138324103642,0.9817703090206553
N,0.9896454828900265,0.5837079416973164,0.8902138324103642,0.9817703090206553
N,0.9897129647466769,0.5832084638786723,0.8902138324103642,0.9817703090206553
N,0.9897805715167174,0.5827089860600282,0.8902138324103642,0.9817703090206553
N,0.9898483035473038,0.582209508241384,0.8902138324103642,0.9817703090206553
N,0.9898388903913766,0.5816646233483177,0.8902138324103642,0.9817703090206553
N,0.9898681310182141,0.5811424419924625,0.8902138324103642,0.9817703090206553
N,0.9899361331526998,0.5806429641738183,0.8902138324103642,0.9817703090206553
N,0.9899655185773507,0.5801207828179631,0.8902138324103642,0.9817703090206553
N,0.9899949587001202,0.5795986014621078,0.8902138324103642,0.9817703090206553
N,0.9900244536738734,0.5790764201062526,0.8902138324103642,0.9817703090206553
N,0.9900928552002797,0.5785769422876084,0.8902138324103642,0.9817703090206553
N,0.9900836087886448,0.5780320573945421,0.8902138324103642,0.9817703090206553
N,0.9900743451013974,0.5774871725014757,0.8902138324103642,0.9817703090206553
N,0.9901040246230568,0.5769649911456205,0.8902138324103642,0.9817703090206553
N,0.9901723734498089,0.5764428097897653,0.8902138324103642,0.9817703090206553
N,0.9901631665235381,0.5758979248966989,0.8902138324103642,0.9817703090206553
N,0.9901539423302337,0.5753530400036325,0.8902138324103642,0.9817703090206553
N,0.9901447008212749,0.5748081551105663,0.8902138324103642,0.9817703090206553
N,0.9901742023879428,0.5742632702174999,0.8902138324103642,0.9817703090206553
N,0.9902433290231574,0.5737637923988558,0.8902138324103642,0.9817703090206553
N,0.9902733654939797,0.5732416110430005,0.8902138324103642,0.9817703090206553
N,0.9902642013111922,0.5726967261499342,0.8902138324103642,0.9817703090206553
N,0.990293932725558,0.5721518412568678,0.8902138324103642,0.9817703090206553
N,0.9903241032095658,0.5716296599010126,0.8902138324103642,0.9817703090206553
N,0.9903937007874015,0.5711301820823684,0.8902138324103642,0.9817703090206553
N,0.9903846153846154,0.5705852971893021,0.8902138324103642,0.9817703090206553
N,0.9904544020195646,0.5700858193706579,0.8902138324103642,0.9817703090206553
N,0.9905243209096652,0.5695863415520138,0.8902138324103642,0.9817703090206553
N,0.9905149587005494,0.5690187531217363,0.8902138324103642,0.9817703090206553
N,0.99054551208513,0.5684965717658811,0.8902138324103642,0.9817703090206553
N,0.9905761235398931,0.5679743904100258,0.8902138324103642,0.9817703090206553
N,0.9906067932305497,0.5674522090541706,0.8902138324103642,0.9817703090206553
N,0.9906375213234418,0.5669300276983154,0.8902138324103642,0.9817703090206553
N,0.9906285986578247,0.5663851428052491,0.8902138324103642,0.9817703090206553
N,0.9906991533844748,0.5658856649866049,0.8902138324103642,0.9817703090206553
N,0.990690272528347,0.5653407800935386,0.8902138324103642,0.9817703090206553
N,0.9906813746963482,0.5647958952004722,0.8902138324103642,0.9817703090206553
N,0.9907123211224937,0.564273713844617,0.8902138324103642,0.9817703090206553
N,0.9907034273630452,0.5637288289515506,0.8902138324103642,0.9817703090206553
N,0.9907743919485602,0.5632293511329065,0.8902138324103642,0.9817703090206553
N,0.9908454927043774,0.5627298733142624,0.8902138324103642,0.9817703090206553
N,0.9909567444279941,0.5622530990328293,0.8902138324103642,0.9817703090206553
N,0.9911079067531843,0.5617763247513963,0.8902138324103642,0.9817703090206553
N,0.9911394435089408,0.561254143395541,0.8902138324103642,0.9817703090206553
N,0.9911309093827755,0.5607092585024747,0.8902138324103642,0.9817703090206553
N,0.9911223588013176,0.5601643736094083,0.8902138324103642,0.9817703090206553
N,0.991113791716928,0.559619488716342,0.8902138324103642,0.9817703090206553
N,0.9911052080817838,0.5590746038232757,0.8902138324103642,0.9817703090206553
N,0.9910966078478769,0.5585297189302093,0.8902138324103642,0.9817703090206553
N,0.9911283167997419,0.5580075375743541,0.8902138324103642,0.9817703090206553
N,0.9911197222894971,0.5574626526812877,0.8902138324103642,0.9817703090206553
N,0.9911111111111112,0.5569177677882214,0.8902138324103642,0.9817703090206553
N,0.9911833697322656,0.5564182899695772,0.8902138324103642,0.9817703090206553
N,0.9911748036596227,0.555873405076511,0.8902138324103642,0.9817703090206553
N,0.9911662209255208,0.5553285201834446,0.8902138324103642,0.9817703090206553
N,0.9912387442200049,0.5548290423648005,0.8902138324103642,0.9817703090206553
N,0.9912708079577751,0.5543068610089452,0.8902138324103642,0.9817703090206553
N,0.991262293749492,0.5537619761158789,0.8902138324103642,0.9817703090206553
N,0.9912944430884387,0.5532397947600236,0.8902138324103642,0.9817703090206553
N,0.9912859353367538,0.5526949098669572,0.8902138324103642,0.9817703090206553
N,0.9913181707018831,0.552172728511102,0.8902138324103642,0.9817703090206553
N,0.9913096695226438,0.5516278436180357,0.8902138324103642,0.9817703090206553
N,0.9913011516785102,0.5510829587249694,0.8902138324103642,0.9817703090206553
N,0.9912926171204317,0.550538073831903,0.8902138324103642,0.9817703090206553
N,0.9912837091295985,0.5499704854016255,0.8902138324103642,0.9817703090206553
N,0.9912751402941056,0.5494256005085593,0.8902138324103642,0.9817703090206553
N,0.9913485587764976,0.5489261226899151,0.8902138324103642,0.9817703090206553
N,0.991340036938231,0.5483812377968488,0.8902138324103642,0.9817703090206553
N,0.9913725812415266,0.5478590564409935,0.8902138324103642,0.9817703090206553
N,0.9914051897849241,0.5473368750851383,0.8902138324103642,0.9817703090206553
N,0.9914378627588194,0.546814693729283,0.8902138324103642,0.9817703090206553
N,0.9914293955251555,0.5462698088362167,0.8902138324103642,0.9817703090206553
N,0.9915030523016004,0.5457476274803614,0.8902138324103642,0.9817703090206553
N,0.9915772089182494,0.5452481496617173,0.8902138324103642,0.9817703090206553
N,0.9915688543560919,0.5447032647686509,0.8902138324103642,0.9817703090206553
N,0.9915604832037068,0.5441583798755846,0.8902138324103642,0.9817703090206553
N,0.9915520954116283,0.5436134949825183,0.8902138324103642,0.9817703090206553
N,0.991543690930194,0.543068610089452,0.8902138324103642,0.9817703090206553
N,0.9915352697095435,0.5425237251963856,0.8902138324103642,0.9817703090206553
N,0.9915268316996179,0.5419788403033192,0.8902138324103642,0.9817703090206553
N,0.991518376850158,0.541433955410253,0.8902138324103642,0.9817703090206553
N,0.9915099051107041,0.5408890705171866,0.8902138324103642,0.9817703090206553
N,0.9915847358773537,0.5403895926985425,0.8902138324103642,0.9817703090206553
N,0.9916597164303587,0.5398901148798982,0.8902138324103642,0.9817703090206553
N,0.9916931040240441,0.539367933524043,0.8902138324103642,0.9817703090206553
N,0.9916847735249875,0.5388230486309767,0.8902138324103642,0.9817703090206553
N,0.9917179068891956,0.5382781637379104,0.8902138324103642,0.9817703090206553
N,0.9917095842230875,0.537733278844844,0.8902138324103642,0.9817703090206553
N,0.991701244813278,0.5371883939517776,0.8902138324103642,0.9817703090206553
N,0.9917348437172225,0.5366662125959224,0.8902138324103642,0.9817703090206553
N,0.9917265129561967,0.5361213277028561,0.8902138324103642,0.9817703090206553
N,0.9918022449236978,0.5356218498842119,0.8902138324103642,0.9817703090206553
N,0.9919202120944325,0.5351450756027789,0.8902138324103642,0.9817703090206553
N,0.9919120434727663,0.5346001907097125,0.8902138324103642,0.9817703090206553
N,0.9919460257221168,0.5340780093538573,0.8902138324103642,0.9817703090206553
N,0.9919378667004347,0.533533124460791,0.8902138324103642,0.9817703090206553
N,0.9920141969831411,0.5330336466421468,0.8902138324103642,0.9817703090206553
N,0.9920060905976399,0.5324887617490806,0.8902138324103642,0.9817703090206553
N,0.9919979677378382,0.5319438768560142,0.8902138324103642,0.9817703090206553
N,0.992074592074592,0.5314443990373701,0.8902138324103642,0.9817703090206553
N,0.9920665224216197,0.5308995141443037,0.8902138324103642,0.9817703090206553
N,0.9920580990401767,0.5303319257140262,0.8902138324103642,0.9817703090206553
N,0.9921350225320976,0.5298324478953821,0.8902138324103642,0.9817703090206553
N,0.992126989531024,0.5292875630023157,0.8902138324103642,0.9817703090206553
N,0.9921615404277072,0.5287653816464605,0.8902138324103642,0.9817703090206553
N,0.9921535181236674,0.5282204967533942,0.8902138324103642,0.9817703090206553
N,0.9921454793818834,0.5276756118603279,0.8902138324103642,0.9817703090206553
N,0.9921374241517819,0.5271307269672615,0.8902138324103642,0.9817703090206553
N,0.9921293523825819,0.5265858420741951,0.8902138324103642,0.9817703090206553
N,0.9921640832405584,0.5260636607183399,0.8902138324103642,0.9817703090206553
N,0.9921560222888984,0.5255187758252736,0.8902138324103642,0.9817703090206553
N,0.9921479447352614,0.5249738909322073,0.8902138324103642,0.9817703090206553
N,0.9921398505283051,0.5244290060391409,0.8902138324103642,0.9817703090206553
N,0.9921747355748559,0.5239068246832856,0.8902138324103642,0.9817703090206553
N,0.9922527330636137,0.5234073468646415,0.8902138324103642,0.9817703090206553
N,0.992244722102542,0.5228624619715752,0.8902138324103642,0.9817703090206553
N,0.9922366945570603,0.5223175770785088,0.8902138324103642,0.9817703090206553
N,0.9922718245401951,0.5217953957226535,0.8902138324103642,0.9817703090206553
N,0.992263808453626,0.5212505108295873,0.8902138324103642,0.9817703090206553
N,0.9922987063557306,0.5207056259365209,0.8902138324103642,0.9817703090206553
N,0.9922907011997055,0.5201607410434546,0.8902138324103642,0.9817703090206553
N,0.9922826793843486,0.5196158561503882,0.8902138324103642,0.9817703090206553
N,0.9922746408576016,0.5190709712573219,0.8902138324103642,0.9817703090206553
N,0.9922665855671895,0.5185260863642556,0.8902138324103642,0.9817703090206553
N,0.9922585134606184,0.5179812014711892,0.8902138324103642,0.9817703090206553
N,0.9922500870776733,0.5174136130409118,0.8902138324103642,0.9817703090206553
N,0.9922419804741981,0.5168687281478455,0.8902138324103642,0.9817703090206553
N,0.9922338568935427,0.5163238432547791,0.8902138324103642,0.9817703090206553
N,0.99222571628232,0.5157789583617127,0.8902138324103642,0.9817703090206553
N,0.9922612801678908,0.5152567770058575,0.8902138324103642,0.9817703090206553
N,0.9922531512605042,0.5147118921127912,0.8902138324103642,0.9817703090206553
N,0.9922888187872415,0.514189710756936,0.8902138324103642,0.9817703090206553
N,0.992280701754386,0.5136448258638696,0.8902138324103642,0.9817703090206553
N,0.992316473480857,0.5131226445080144,0.8902138324103642,0.9817703090206553
N,0.9923080304162455,0.5125550560777369,0.8902138324103642,0.9817703090206553
N,0.9922999075988912,0.5120101711846706,0.8902138324103642,0.9817703090206553
N,0.9922917676078051,0.5114652862916043,0.8902138324103642,0.9817703090206553
N,0.9922836103884651,0.5109204013985379,0.8902138324103642,0.9817703090206553
N,0.9923195762524829,0.5103982200426826,0.8902138324103642,0.9817703090206553
N,0.9923114312226592,0.5098533351496163,0.8902138324103642,0.9817703090206553
N,0.9923032688990135,0.5093084502565499,0.8902138324103642,0.9817703090206553
N,0.9922950892264093,0.5087635653634837,0.8902138324103642,0.9817703090206553
N,0.9922868921494747,0.5082186804704173,0.8902138324103642,0.9817703090206553
N,0.9923230530286221,0.507696499114562,0.8902138324103642,0.9817703090206553
N,0.9923148682866154,0.5071516142214957,0.8902138324103642,0.9817703090206553
N,0.9923066660737315,0.5066067293284293,0.8902138324103642,0.9817703090206553
N,0.9922981034636275,0.5060391408981519,0.8902138324103642,0.9817703090206553
N,0.9923344326588822,0.5055169595422967,0.8902138324103642,0.9817703090206553
N,0.9923258823004506,0.5049493711120192,0.8902138324103642,0.9817703090206553
N,0.9923176559917817,0.504404486218953,0.8902138324103642,0.9817703090206553
N,0.9923094120277219,0.5038596013258866,0.8902138324103642,0.9817703090206553
N,0.992345911105143,0.5033374199700313,0.8902138324103642,0.9817703090206553
N,0.992427297575839,0.5028379421513872,0.8902138324103642,0.9817703090206553
N,0.9924191450231015,0.5022930572583209,0.8902138324103642,0.9817703090206553
N,0.99241097489784,0.5017481723652545,0.8902138324103642,0.9817703090206553
N,0.9924027871431782,0.5012032874721881,0.8902138324103642,0.9817703090206553
N,0.9923945817019936,0.5006584025791219,0.8902138324103642,0.9817703090206553
N,0.9923863585169167,0.5001135176860555,0.8902138324103642,0.9817703090206553
N,0.9923777737687173,0.49954592925577807,0.8902138324103642,0.9817703090206553
N,0.9923695141773523,0.4990010443627117,0.8902138324103642,0.9817703090206553
N,0.992451636232146,0.4985015665440676,0.8902138324103642,0.9817703090206553
N,0.9924434389140272,0.4979566816510012,0.8902138324103642,0.9817703090206553
N,0.9924352237724225,0.4974117967579349,0.8902138324103642,0.9817703090206553
N,0.992426647317582,0.49684420832765747,0.8902138324103642,0.9817703090206553
N,0.9924183956053934,0.4962993234345911,0.8902138324103642,0.9817703090206553
N,0.9924101258919238,0.4957544385415248,0.8902138324103642,0.9817703090206553
N,0.9924014924014924,0.49518685011124736,0.8902138324103642,0.9817703090206553
N,0.9924387355379429,0.4946646687553921,0.8902138324103642,0.9817703090206553
N,0.9924304605563156,0.49411978386232575,0.8902138324103642,0.9817703090206553
N,0.992513466630147,0.4936203060436816,0.8902138324103642,0.9817703090206553
N,0.9925049129381656,0.4930527176134042,0.8902138324103642,0.9817703090206553
N,0.9925424349178753,0.49253053625754895,0.8902138324103642,0.9817703090206553
N,0.9925342371639262,0.4919856513644826,0.8902138324103642,0.9817703090206553
N,0.9925718739969738,0.49146347000862733,0.8902138324103642,0.9817703090206553
N,0.9926554969015378,0.4909639921899832,0.8902138324103642,0.9817703090206553
N,0.9926473967189008,0.49041910729691685,0.8902138324103642,0.9817703090206553
N,0.9926392786493077,0.48987422240385053,0.8902138324103642,0.9817703090206553
N,0.9926311426334454,0.48932933751078417,0.8902138324103642,0.9817703090206553
N,0.9926690949329153,0.4888071561549289,0.8902138324103642,0.9817703090206553
N,0.9927071313177936,0.4882849747990737,0.8902138324103642,0.9817703090206553
N,0.992699043482279,0.48774008990600737,0.8902138324103642,0.9817703090206553
N,0.9927371975759819,0.4872179085501521,0.8902138324103642,0.9817703090206553
N,0.9927751018895887,0.48667302365708576,0.8902138324103642,0.9817703090206553
N,0.9928130940789168,0.48612813876401945,0.8902138324103642,0.9817703090206553
N,0.9928050874994198,0.4855832538709531,0.8902138324103642,0.9817703090206553
N,0.9927970630605512,0.48503836897788677,0.8902138324103642,0.9817703090206553
N,0.992789020702489,0.4844934840848204,0.8902138324103642,0.9817703090206553
N,0.9928275348144008,0.48397130272896516,0.8902138324103642,0.9817703090206553
N,0.9928661351237935,0.4834491213731099,0.8902138324103642,0.9817703090206553
N,0.9928581431172104,0.4829042364800436,0.8902138324103642,0.9817703090206553
N,0.9928501331837937,0.48235935158697724,0.8902138324103642,0.9817703090206553
N,0.9928421052631579,0.4818144666939109,0.8902138324103642,0.9817703090206553
N,0.9928340592946466,0.48126958180084456,0.8902138324103642,0.9817703090206553
N,0.9928259952173302,0.48072469690777825,0.8902138324103642,0.9817703090206553
N,0.9928175758144775,0.4801571084775008,0.8902138324103642,0.9817703090206553
N,0.992809474574678,0.47961222358443445,0.8902138324103642,0.9817703090206553
N,0.9928013550390514,0.47906733869136814,0.8902138324103642,0.9817703090206553
N,0.9927932171455488,0.4785224537983018,0.8902138324103642,0.9817703090206553
N,0.99278506083184,0.47797756890523546,0.8902138324103642,0.9817703090206553
N,0.9927765450167603,0.477409980474958,0.8902138324103642,0.9817703090206553
N,0.9927683509004112,0.47686509558189166,0.8902138324103642,0.9817703090206553
N,0.9928074575308758,0.4763429142260364,0.8902138324103642,0.9817703090206553
N,0.9927992799279928,0.47579802933297005,0.8902138324103642,0.9817703090206553
N,0.9927910837087978,0.47525314443990374,0.8902138324103642,0.9817703090206553
N,0.9927828688096482,0.4747082595468374,0.8902138324103642,0.9817703090206553
N,0.9927746351666112,0.47416337465377106,0.8902138324103642,0.9817703090206553
N,0.9927663827154618,0.4736184897607047,0.8902138324103642,0.9817703090206553
N,0.9928057553956835,0.47309630840484945,0.8902138324103642,0.9817703090206553
N,0.9927975196756499,0.47255142351178314,0.8902138324103642,0.9817703090206553
N,0.99283701828948,0.4720292421559279,0.8902138324103642,0.9817703090206553
N,0.9928287995410432,0.47148435726286153,0.8902138324103642,0.9817703090206553
N,0.9928684248312832,0.4709621759070063,0.8902138324103642,0.9817703090206553
N,0.9928602232977143,0.47041729101394,0.8902138324103642,0.9817703090206553
N,0.9928999760134325,0.46989510965808473,0.8902138324103642,0.9817703090206553
N,0.9929394812680116,0.46935022476501836,0.8902138324103642,0.9817703090206553
N,0.992931332948644,0.46880533987195205,0.8902138324103642,0.9817703090206553
N,0.9929231658001155,0.4682604549788857,0.8902138324103642,0.9817703090206553
N,0.993011374590322,0.46776097716024156,0.8902138324103642,0.9817703090206553
N,0.9930032812198417,0.46721609226717525,0.8902138324103642,0.9817703090206553
N,0.9929951690821256,0.4666712073741089,0.8902138324103642,0.9817703090206553
N,0.9929870381118204,0.4661263224810425,0.8902138324103642,0.9817703090206553
N,0.9930273097036607,0.46560414112518733,0.8902138324103642,0.9817703090206553
N,0.9930191972076788,0.46505925623212097,0.8902138324103642,0.9817703090206553
N,0.9931081343428461,0.46455977841347684,0.8902138324103642,0.9817703090206553
N,0.9931486880466472,0.4640375970576216,0.8902138324103642,0.9817703090206553
N,0.9931403551447336,0.46347000862734417,0.8902138324103642,0.9817703090206553
N,0.9931323364668063,0.4629251237342778,0.8902138324103642,0.9817703090206553
N,0.9931242990198469,0.4623802388412115,0.8902138324103642,0.9817703090206553
N,0.9931647300068353,0.4618353539481451,0.8902138324103642,0.9817703090206553
N,0.9932055919444716,0.4613131725922899,0.8902138324103642,0.9817703090206553
N,0.9932465498678673,0.46079099123643463,0.8902138324103642,0.9817703090206553
N,0.9932386085252327,0.4602461063433683,0.8902138324103642,0.9817703090206553
N,0.9932797017561071,0.4597239249875131,0.8902138324103642,0.9817703090206553
N,0.9932717807680974,0.4591790400944467,0.8902138324103642,0.9817703090206553
N,0.9932638410856525,0.4586341552013804,0.8902138324103642,0.9817703090206553
N,0.9932558826425125,0.45808927030831403,0.8902138324103642,0.9817703090206553
N,0.9932479053721045,0.4575443854152477,0.8902138324103642,0.9817703090206553
N,0.9932395756229954,0.45697679698497023,0.8902138324103642,0.9817703090206553
N,0.9933794466403162,0.4564773191663261,0.8902138324103642,0.9817703090206553
N,0.9933712589661142,0.4559097307360487,0.8902138324103642,0.9817703090206553
N,0.993412906740627,0.45538754938019343,0.8902138324103642,0.9817703090206553
N,0.9934543290687295,0.45484266448712707,0.8902138324103642,0.9817703090206553
N,0.9934961771422898,0.4543204831312719,0.8902138324103642,0.9817703090206553
N,0.9934884183318421,0.4537755982382055,0.8902138324103642,0.9817703090206553
N,0.9935304070866925,0.45325341688235027,0.8902138324103642,0.9817703090206553
N,0.9935226706527155,0.45270853198928396,0.8902138324103642,0.9817703090206553
N,0.993514915693904,0.4521636470962176,0.8902138324103642,0.9817703090206553
N,0.993507142143642,0.4516187622031512,0.8902138324103642,0.9817703090206553
N,0.9935493549354936,0.45109658084729604,0.8902138324103642,0.9817703090206553
N,0.9935416040853109,0.45055169595422967,0.8902138324103642,0.9817703090206553
N,0.9935338345864662,0.4500068110611633,0.8902138324103642,0.9817703090206553
N,0.993626417745659,0.4495073332425192,0.8902138324103642,0.9817703090206553
N,0.9936187317857502,0.44896244834945287,0.8902138324103642,0.9817703090206553
N,0.9936613341382433,0.4484402669935976,0.8902138324103642,0.9817703090206553
N,0.9936536718041704,0.44789538210053126,0.8902138324103642,0.9817703090206553
N,0.9936456704826264,0.4473277936702538,0.8902138324103642,0.9817703090206553
N,0.9936884625094673,0.4468056123143986,0.8902138324103642,0.9817703090206553
N,0.993680804812699,0.44626072742133227,0.8902138324103642,0.9817703090206553
N,0.9936731285114137,0.4457158425282659,0.8902138324103642,0.9817703090206553
N,0.9936654335377286,0.44517095763519954,0.8902138324103642,0.9817703090206553
N,0.9936577198234309,0.4446260727421332,0.8902138324103642,0.9817703090206553
N,0.9937512700670595,0.444103891386278,0.8902138324103642,0.9817703090206553
N,0.9937436419125127,0.4435590064932116,0.8902138324103642,0.9817703090206553
N,0.9937869219800367,0.4430368251373564,0.8902138324103642,0.9817703090206553
N,0.9938812971650011,0.44253734731871225,0.8902138324103642,0.9817703090206553
N,0.9938738002858893,0.44199246242564594,0.8902138324103642,0.9817703090206553
N,0.9938662850132897,0.44144757753257957,0.8902138324103642,0.9817703090206553
N,0.9938584369722094,0.44087998910230214,0.8902138324103642,0.9817703090206553
N,0.9938508839354343,0.4403351042092358,0.8902138324103642,0.9817703090206553
N,0.9938433122979837,0.43979021931616946,0.8902138324103642,0.9817703090206553
N,0.9938357219910618,0.4392453344231031,0.8902138324103642,0.9817703090206553
N,0.9938277954942907,0.43867774599282566,0.8902138324103642,0.9817703090206553
N,0.9938201668554949,0.43813286109975935,0.8902138324103642,0.9817703090206553
N,0.9938640816747447,0.4376106797439041,0.8902138324103642,0.9817703090206553
N,0.9938564790913784,0.43706579485083774,0.8902138324103642,0.9817703090206553
N,0.9938488576449912,0.43652090995777143,0.8902138324103642,0.9817703090206553
N,0.9938929717420557,0.4359987286019162,0.8902138324103642,0.9817703090206553
N,0.9939371955643072,0.43547654724606094,0.8902138324103642,0.9817703090206553
N,0.9939296461554425,0.4349316623529946,0.8902138324103642,0.9817703090206553
N,0.9939220779220779,0.43438677745992826,0.8902138324103642,0.9817703090206553
N,0.9939141742522757,0.43381918902965083,0.8902138324103642,0.9817703090206553
N,0.994010728607885,0.43331971121100665,0.8902138324103642,0.9817703090206553
N,0.9940032330395787,0.43277482631794034,0.8902138324103642,0.9817703090206553
N,0.9939957186863677,0.432229941424874,0.8902138324103642,0.9817703090206553
N,0.9939881854775472,0.43168505653180766,0.8902138324103642,0.9817703090206553
N,0.9939803182579564,0.43111746810153023,0.8902138324103642,0.9817703090206553
N,0.9939727463312369,0.43057258320846387,0.8902138324103642,0.9817703090206553
N,0.9940176322418136,0.4300504018526086,0.8902138324103642,0.9817703090206553
N,0.9941148652199043,0.4295282204967534,0.8902138324103642,0.9817703090206553
N,0.9941074341032251,0.42898333560368707,0.8902138324103642,0.9817703090206553
N,0.9941526629089185,0.4284611542478318,0.8902138324103642,0.9817703090206553
N,0.994145260825993,0.42791626935476546,0.8902138324103642,0.9817703090206553
N,0.9941378399788751,0.42737138446169914,0.8902138324103642,0.9817703090206553
N,0.9941300898995241,0.4268037960314217,0.8902138324103642,0.9817703090206553
N,0.9941223193010326,0.4262362076011443,0.8902138324103642,0.9817703090206553
N,0.9941148401463337,0.4256913227080779,0.8902138324103642,0.9817703090206553
N,0.9941604289430377,0.42516914135222267,0.8902138324103642,0.9817703090206553
N,0.9941529793228087,0.42462425645915636,0.8902138324103642,0.9817703090206553
N,0.9941981157183158,0.4240566680288789,0.8902138324103642,0.9817703090206553
N,0.9941906944518467,0.42351178313581256,0.8902138324103642,0.9817703090206553
N,0.9941829437506671,0.4229441947055351,0.8902138324103642,0.9817703090206553
N,0.9941754835951694,0.42239930981246876,0.8902138324103642,0.9817703090206553
N,0.9942215088282504,0.4218771284566135,0.8902138324103642,0.9817703090206553
N,0.9942676524161577,0.4213549471007583,0.8902138324103642,0.9817703090206553
N,0.9942602725029503,0.42081006220769196,0.8902138324103642,0.9817703090206553
N,0.9943602964872704,0.42031058438904784,0.8902138324103642,0.9817703090206553
N,0.9943524096385542,0.4197202924215593,0.8902138324103642,0.9817703090206553
N,0.994398965962947,0.41919811106570404,0.8902138324103642,0.9817703090206553
N,0.9943917169974116,0.41865322617263767,0.8902138324103642,0.9817703090206553
N,0.9943844492440604,0.41810834127957136,0.8902138324103642,0.9817703090206553
N,0.9943771626297578,0.417563456386505,0.8902138324103642,0.9817703090206553
N,0.9943695522711277,0.41699586795622756,0.8902138324103642,0.9817703090206553
N,0.9944164362769013,0.4164736866003723,0.8902138324103642,0.9817703090206553
N,0.9944091624599685,0.415928801707306,0.8902138324103642,0.9817703090206553
N,0.9944562204467634,0.41540662035145076,0.8902138324103642,0.9817703090206553
N,0.9944486774790465,0.41483903192117333,0.8902138324103642,0.9817703090206553
N,0.994441416893733,0.41429414702810696,0.8902138324103642,0.9817703090206553
N,0.9944338335607095,0.41372655859782953,0.8902138324103642,0.9817703090206553
N,0.9944265340691766,0.4131816737047632,0.8902138324103642,0.9817703090206553
N,0.9944192154073426,0.41263678881169685,0.8902138324103642,0.9817703090206553
N,0.9944118774995891,0.41209190391863054,0.8902138324103642,0.9817703090206553
N,0.9944045202698996,0.4115470190255642,0.8902138324103642,0.9817703090206553
N,0.9944520736061522,0.41102483766970893,0.8902138324103642,0.9817703090206553
N,0.9944447500137507,0.4104799527766426,0.8902138324103642,0.9817703090206553
N,0.9944374070606378,0.40993506788357625,0.8902138324103642,0.9817703090206553
N,0.9944851927425137,0.409412886527721,0.8902138324103642,0.9817703090206553
N,0.9944778839251202,0.4088680016346547,0.8902138324103642,0.9817703090206553
N,0.9944705557091512,0.40832311674158833,0.8902138324103642,0.9817703090206553
N,0.9944632080172748,0.407778231848522,0.8902138324103642,0.9817703090206553
N,0.994455840771747,0.40723334695545566,0.8902138324103642,0.9817703090206553
N,0.9944484538944096,0.40668846206238934,0.8902138324103642,0.9817703090206553
N,0.9944410473066874,0.406143577169323,0.8902138324103642,0.9817703090206553
N,0.9944336209295853,0.40559869227625667,0.8902138324103642,0.9817703090206553
N,0.9944819129368485,0.4050765109204014,0.8902138324103642,0.9817703090206553
N,0.994474521404253,0.40453162602733506,0.8902138324103642,0.9817703090206553
N,0.9944671100430336,0.40398674113426875,0.8902138324103642,0.9817703090206553
N,0.9944593687038281,0.40341915270399126,0.8902138324103642,0.9817703090206553
N,0.9945079578569828,0.402896971348136,0.8902138324103642,0.9817703090206553
N,0.9945005611672278,0.4023520864550697,0.8902138324103642,0.9817703090206553
N,0.99449314452686,0.40180720156200334,0.8902138324103642,0.9817703090206553
N,0.9944857078550529,0.401262316668937,0.8902138324103642,0.9817703090206553
N,0.9944782510705431,0.40071743177587066,0.8902138324103642,0.9817703090206553
N,0.994583615436696,0.40021795395722654,0.8902138324103642,0.9817703090206553
N,0.9945762711864407,0.39967306906416017,0.8902138324103642,0.9817703090206553
N,0.9946254808780267,0.399150887708305,0.8902138324103642,0.9817703090206553
N,0.9946181735780648,0.3986060028152386,0.8902138324103642,0.9817703090206553
N,0.9946108463807579,0.39806111792217225,0.8902138324103642,0.9817703090206553
N,0.9946603044762554,0.39753893656631706,0.8902138324103642,0.9817703090206553
N,0.9946527106206269,0.39697134813603957,0.8902138324103642,0.9817703090206553
N,0.9946454001708915,0.39642646324297326,0.8902138324103642,0.9817703090206553
N,0.9946380697050938,0.3958815783499069,0.8902138324103642,0.9817703090206553
N,0.994630719140915,0.3953366934568406,0.8902138324103642,0.9817703090206553
N,0.9946805468169079,0.39481451210098534,0.8902138324103642,0.9817703090206553
N,0.9946732344349619,0.39426962720791897,0.8902138324103642,0.9817703090206553
N,0.9946659019214225,0.39372474231485266,0.8902138324103642,0.9817703090206553
N,0.9947159841479525,0.3932025609589974,0.8902138324103642,0.9817703090206553
N,0.9947086904008742,0.39265767606593105,0.8902138324103642,0.9817703090206553
N,0.9947013764902378,0.39211279117286474,0.8902138324103642,0.9817703090206553
N,0.9946940423323144,0.3915679062797984,0.8902138324103642,0.9817703090206553
N,0.9946863809633822,0.39100031784952094,0.8902138324103642,0.9817703090206553
N,0.994679005205321,0.39045543295645463,0.8902138324103642,0.9817703090206553
N,0.9946716089424302,0.38991054806338826,0.8902138324103642,0.9817703090206553
N,0.9946638826054173,0.38934295963311083,0.8902138324103642,0.9817703090206553
N,0.994656444212116,0.3887980747400445,0.8902138324103642,0.9817703090206553
N,0.9946489850520561,0.38825318984697815,0.8902138324103642,0.9817703090206553
N,0.99475799405906,0.38775371202833403,0.8902138324103642,0.9817703090206553
N,0.994750656167979,0.38720882713526766,0.8902138324103642,0.9817703090206553
N,0.9947432977045734,0.38666394224220135,0.8902138324103642,0.9817703090206553
N,0.9947359185822074,0.386119057349135,0.8902138324103642,0.9817703090206553
N,0.9947285187137586,0.3855741724560687,0.8902138324103642,0.9817703090206553
N,0.9947210980116136,0.3850292875630023,0.8902138324103642,0.9817703090206553
N,0.9947136563876652,0.384484402669936,0.8902138324103642,0.9817703090206553
N,0.9947650138227163,0.38396222131408075,0.8902138324103642,0.9817703090206553
N,0.9947576132414443,0.3834173364210144,0.8902138324103642,0.9817703090206553
N,0.9947501917064826,0.3828724515279481,0.8902138324103642,0.9817703090206553
N,0.9948018193632229,0.38235027017209283,0.8902138324103642,0.9817703090206553
N,0.9947944395149364,0.38180538527902647,0.8902138324103642,0.9817703090206553
N,0.9948462768793318,0.3812832039231712,0.8902138324103642,0.9817703090206553
N,0.994838939313045,0.3807383190301049,0.8902138324103642,0.9817703090206553
N,0.9948909879403552,0.38021613767424967,0.8902138324103642,0.9817703090206553
N,0.9948836932595634,0.3796712527811833,0.8902138324103642,0.9817703090206553
N,0.9948763777182008,0.379126367888117,0.8902138324103642,0.9817703090206553
N,0.9948687350835322,0.37855877945783956,0.8902138324103642,0.9817703090206553
N,0.9948613766730402,0.3780138945647732,0.8902138324103642,0.9817703090206553
N,0.9948539971278123,0.3774690096717069,0.8902138324103642,0.9817703090206553
N,0.9949065196548418,0.37694682831585163,0.8902138324103642,0.9817703090206553
N,0.9948991838694191,0.37640194342278527,0.8902138324103642,0.9817703090206553
N,0.9948918269230769,0.37585705852971896,0.8902138324103642,0.9817703090206553
N,0.9950048146364949,0.3753575807110748,0.8902138324103642,0.9817703090206553
N,0.9950578592092575,0.37483539935521953,0.8902138324103642,0.9817703090206553
N,0.9950507001448575,0.3742905144621532,0.8902138324103642,0.9817703090206553
N,0.9950435203094777,0.37374562956908686,0.8902138324103642,0.9817703090206553
N,0.9950363196125908,0.37320074467602055,0.8902138324103642,0.9817703090206553
N,0.9950290979631425,0.3726558597829542,0.8902138324103642,0.9817703090206553
N,0.9950218552695483,0.37211097488988787,0.8902138324103642,0.9817703090206553
N,0.9950145914396887,0.3715660899968215,0.8902138324103642,0.9817703090206553
N,0.9950070023747184,0.37099850156654407,0.8902138324103642,0.9817703090206553
N,0.9949993901695329,0.37043091313626664,0.8902138324103642,0.9817703090206553
N,0.9949920605838525,0.36988602824320027,0.8902138324103642,0.9817703090206553
N,0.9949844027157624,0.36931843981292284,0.8902138324103642,0.9817703090206553
N,0.9949770290964778,0.3687735549198565,0.8902138324103642,0.9817703090206553
N,0.9949696337647997,0.36822867002679016,0.8902138324103642,0.9817703090206553
N,0.9950236530073109,0.3677064886709349,0.8902138324103642,0.9817703090206553
N,0.9950163046822125,0.3671616037778686,0.8902138324103642,0.9817703090206553
N,0.9950089346232054,0.36661671888480224,0.8902138324103642,0.9817703090206553
N,0.9950015427337242,0.36607183399173593,0.8902138324103642,0.9817703090206553
N,0.9950556242274413,0.36552694909866956,0.8902138324103642,0.9817703090206553
N,0.9950479727638502,0.36495936066839213,0.8902138324103642,0.9817703090206553
N,0.9950406050461844,0.3644144757753258,0.8902138324103642,0.9817703090206553
N,0.9950332153721985,0.36386959088225945,0.8902138324103642,0.9817703090206553
N,0.9950879810980539,0.3633474095264042,0.8902138324103642,0.9817703090206553
N,0.9950806401394856,0.3628025246333379,0.8902138324103642,0.9817703090206553
N,0.9950732772061116,0.36225763974027153,0.8902138324103642,0.9817703090206553
N,0.9951283492598838,0.3617354583844163,0.8902138324103642,0.9817703090206553
N,0.9951210358416214,0.36119057349135,0.8902138324103642,0.9817703090206553
N,0.9951137004322496,0.3606456885982836,0.8902138324103642,0.9817703090206553
N,0.9951060358890701,0.3600781001680062,0.8902138324103642,0.9817703090206553
N,0.9950986552720875,0.3595332152749398,0.8902138324103642,0.9817703090206553
N,0.9950912523599749,0.3589883303818735,0.8902138324103642,0.9817703090206553
N,0.9951468549098702,0.35846614902601825,0.8902138324103642,0.9817703090206553
N,0.9951395025880571,0.3579212641329519,0.8902138324103642,0.9817703090206553
N,0.9951321279554938,0.3573763792398856,0.8902138324103642,0.9817703090206553
N,0.9951880460934532,0.35685419788403033,0.8902138324103642,0.9817703090206553
N,0.9951807228915662,0.35630931299096397,0.8902138324103642,0.9817703090206553
N,0.995236885558237,0.3557871316351088,0.8902138324103642,0.9817703090206553
N,0.9952296145528559,0.3552422467420424,0.8902138324103642,0.9817703090206553
N,0.9952223213148171,0.35469736184897604,0.8902138324103642,0.9817703090206553
N,0.9952150057419931,0.35415247695590973,0.8902138324103642,0.9817703090206553
N,0.9952076677316294,0.35360759206284337,0.8902138324103642,0.9817703090206553
N,0.9952003071803405,0.35306270716977706,0.8902138324103642,0.9817703090206553
N,0.9951929239841046,0.3525178222767107,0.8902138324103642,0.9817703090206553
N,0.9951852089619311,0.35195023384643326,0.8902138324103642,0.9817703090206553
N,0.9951777792065839,0.35140534895336695,0.8902138324103642,0.9817703090206553
N,0.9951703264859295,0.3508604640603006,0.8902138324103642,0.9817703090206553
N,0.9951628506933248,0.35031557916723427,0.8902138324103642,0.9817703090206553
N,0.9951550387596899,0.34974799073695684,0.8902138324103642,0.9817703090206553
N,0.995212215320911,0.3492258093811016,0.8902138324103642,0.9817703090206553
N,0.9952044585574493,0.34865822095082416,0.8902138324103642,0.9817703090206553
N,0.9951969883819043,0.3481133360577578,0.8902138324103642,0.9817703090206553
N,0.9951894948969642,0.3475684511646915,0.8902138324103642,0.9817703090206553
N,0.995181977993359,0.3470235662716251,0.8902138324103642,0.9817703090206553
N,0.9951741228642232,0.3464559778413477,0.8902138324103642,0.9817703090206553
N,0.995166557805356,0.3459110929482813,0.8902138324103642,0.9817703090206553
N,0.9952243883291901,0.3453889115924261,0.8902138324103642,0.9817703090206553
N,0.995216878521819,0.34484402669935976,0.8902138324103642,0.9817703090206553
N,0.9952093450584066,0.3442991418062934,0.8902138324103642,0.9817703090206553
N,0.9952017878270014,0.3437542569132271,0.8902138324103642,0.9817703090206553
N,0.9952600394996708,0.34323207555737184,0.8902138324103642,0.9817703090206553
N,0.9952525385731241,0.3426871906643055,0.8902138324103642,0.9817703090206553
N,0.9952446998216763,0.34211960223402804,0.8902138324103642,0.9817703090206553
N,0.9952371502282199,0.34157471734096173,0.8902138324103642,0.9817703090206553
N,0.9952295766249255,0.34102983244789536,0.8902138324103642,0.9817703090206553
N,0.9952216617998407,0.34046224401761793,0.8902138324103642,0.9817703090206553
N,0.9952137206674201,0.3398946555873405,0.8902138324103642,0.9817703090206553
N,0.9952060723084093,0.3393497706942742,0.8902138324103642,0.9817703090206553
N,0.9951983994664888,0.3388048858012078,0.8902138324103642,0.9817703090206553
N,0.9951907020239129,0.3382600009081415,0.8902138324103642,0.9817703090206553
N,0.9951829798621797,0.33771511601507515,0.8902138324103642,0.9817703090206553
N,0.995175232862025,0.33717023112200883,0.8902138324103642,0.9817703090206553
N,0.9951671365283931,0.33660264269173135,0.8902138324103642,0.9817703090206553
N,0.9951593384429205,0.33605775779866504,0.8902138324103642,0.9817703090206553
N,0.9951511886322312,0.3354901693683876,0.8902138324103642,0.9817703090206553
N,0.9951433389544688,0.33494528447532124,0.8902138324103642,0.9817703090206553
N,0.9952030268225119,0.334423103119466,0.8902138324103642,0.9817703090206553
N,0.9952629085741355,0.33390092176361075,0.8902138324103642,0.9817703090206553
N,0.9952548806941431,0.3333333333333333,0.8902138324103642,0.9817703090206553
N,0.9952471482889734,0.332788448440267,0.8902138324103642,0.9817703090206553
N,0.9952393906420022,0.33224356354720064,0.8902138324103642,0.9817703090206553
N,0.9952312827849309,0.3316759751169232,0.8902138324103642,0.9817703090206553
N,0.995223473217332,0.3311310902238569,0.8902138324103642,0.9817703090206553
N,0.9952156380288428,0.33058620533079053,0.8902138324103642,0.9817703090206553
N,0.9952077770931745,0.3300413204377242,0.8902138324103642,0.9817703090206553
N,0.9951998902832064,0.32949643554465785,0.8902138324103642,0.9817703090206553
N,0.9952603379585108,0.32895155065159154,0.8902138324103642,0.9817703090206553
N,0.9952525113526902,0.3284066657585252,0.8902138324103642,0.9817703090206553
N,0.9952446588559614,0.32786178086545886,0.8902138324103642,0.9817703090206553
N,0.995305812508629,0.3273395995096036,0.8902138324103642,0.9817703090206553
N,0.9952980224035403,0.32679471461653725,0.8902138324103642,0.9817703090206553
N,0.9952898801690102,0.3262271261862598,0.8902138324103642,0.9817703090206553
N,0.9952820370498855,0.32568224129319345,0.8902138324103642,0.9817703090206553
N,0.9953436652998818,0.32516005993733826,0.8902138324103642,0.9817703090206553
N,0.9953358858336234,0.3246151750442719,0.8902138324103642,0.9817703090206553
N,0.9953280803291262,0.32407029015120553,0.8902138324103642,0.9817703090206553
N,0.9953202486554446,0.3235254052581392,0.8902138324103642,0.9817703090206553
N,0.9953823549989506,0.323003223902284,0.8902138324103642,0.9817703090206553
N,0.9954446702642091,0.32248104254642873,0.8902138324103642,0.9817703090206553
N,0.9954369954369955,0.3219361576533624,0.8902138324103642,0.9817703090206553
N,0.9954996132480135,0.3214139762975072,0.8902138324103642,0.9817703090206553
N,0.9954920053532437,0.3208690914044408,0.8902138324103642,0.9817703090206553
N,0.9954840530623765,0.3203015029741634,0.8902138324103642,0.9817703090206553
N,0.9954763924229573,0.319756618081097,0.8902138324103642,0.9817703090206553
N,0.9954683849040572,0.3191890296508196,0.8902138324103642,0.9817703090206553
N,0.9954606709695724,0.31864414475775327,0.8902138324103642,0.9817703090206553
N,0.9954529307282416,0.3180992598646869,0.8902138324103642,0.9817703090206553
N,0.9954451640452637,0.3175543749716206,0.8902138324103642,0.9817703090206553
N,0.9955086618664005,0.31703219361576535,0.8902138324103642,0.9817703090206553
N,0.9955009640791259,0.316487308722699,0.8902138324103642,0.9817703090206553
N,0.9954932398597897,0.31594242382963267,0.8902138324103642,0.9817703090206553
N,0.9954854890720172,0.3153975389365663,0.8902138324103642,0.9817703090206553
N,0.995549493934391,0.31487535758071106,0.8902138324103642,0.9817703090206553
N,0.9955418134752283,0.31433047268764475,0.8902138324103642,0.9817703090206553
N,0.9956061370020889,0.3138082913317895,0.8902138324103642,0.9817703090206553
N,0.9955985280323255,0.31326340643872314,0.8902138324103642,0.9817703090206553
N,0.9955905739482435,0.3126958180084457,0.8902138324103642,0.9817703090206553
N,0.9955829109341057,0.3121509331153794,0.8902138324103642,0.9817703090206553
N,0.995575221238938,0.311606048222313,0.8902138324103642,0.9817703090206553
N,0.9955671826175423,0.3110384597920356,0.8902138324103642,0.9817703090206553
N,0.9955594380141224,0.3104935748989693,0.8902138324103642,0.9817703090206553
N,0.9956245898052942,0.30997139354311404,0.8902138324103642,0.9817703090206553
N,0.9956169186938417,0.30942650865004767,0.8902138324103642,0.9817703090206553
N,0.9956824002927186,0.3089043272941924,0.8902138324103642,0.9817703090206553
N,0.9956748039000073,0.3083594424011261,0.8902138324103642,0.9817703090206553
N,0.9957406183447162,0.30783726104527087,0.8902138324103642,0.9817703090206553
N,0.9957330979180461,0.3072923761522045,0.8902138324103642,0.9817703090206553
N,0.9957255508880537,0.3067474912591382,0.8902138324103642,0.9817703090206553
N,0.995717977113326,0.30620260636607183,0.8902138324103642,0.9817703090206553
N,0.9957843354781452,0.3056804250102166,0.8902138324103642,0.9817703090206553
N,0.9957768392976217,0.3051355401171503,0.8902138324103642,0.9817703090206553
N,0.995769316410599,0.3045906552240839,0.8902138324103642,0.9817703090206553
N,0.9957614515169542,0.3040230667938065,0.8902138324103642,0.9817703090206553
N,0.995753873659118,0.30347818190074016,0.8902138324103642,0.9817703090206553
N,0.9957462686567164,0.3029332970076738,0.8902138324103642,0.9817703090206553
N,0.9957383177570094,0.30236570857739636,0.8902138324103642,0.9817703090206553
N,0.9957306568796345,0.30182082368433,0.8902138324103642,0.9817703090206553
N,0.9957980040519246,0.30129864232847475,0.8902138324103642,0.9817703090206553
N,0.9957901067508645,0.3007310538981973,0.8902138324103642,0.9817703090206553
N,0.9957821797092716,0.3001634654679199,0.8902138324103642,0.9817703090206553
N,0.9957745416132197,0.2996185805748536,0.8902138324103642,0.9817703090206553
N,0.9957668758031597,0.2990736956817872,0.8902138324103642,0.9817703090206553
N,0.9957591821279819,0.2985288107887209,0.8902138324103642,0.9817703090206553
N,0.9957514604354754,0.29798392589565453,0.8902138324103642,0.9817703090206553
N,0.9957437105723189,0.2974390410025882,0.8902138324103642,0.9817703090206553
N,0.9957359323840707,0.29689415610952186,0.8902138324103642,0.9817703090206553
N,0.9957281257151576,0.29634927121645555,0.8902138324103642,0.9817703090206553
N,0.9957202904088651,0.2958043863233892,0.8902138324103642,0.9817703090206553
N,0.9957124263073271,0.29525950143032287,0.8902138324103642,0.9817703090206553
N,0.9957812380148807,0.2947373200744676,0.8902138324103642,0.9817703090206553
N,0.9957734573119188,0.29419243518140126,0.8902138324103642,0.9817703090206553
N,0.9957656478558781,0.29364755028833495,0.8902138324103642,0.9817703090206553
N,0.9957578094870806,0.2931026653952686,0.8902138324103642,0.9817703090206553
N,0.9958272158256704,0.29258048403941334,0.8902138324103642,0.9817703090206553
N,0.9958194627235426,0.292035599146347,0.8902138324103642,0.9817703090206553
N,0.9958113558796152,0.29146801071606954,0.8902138324103642,0.9817703090206553
N,0.9958035436742306,0.2909231258230032,0.8902138324103642,0.9817703090206553
N,0.9957957022734351,0.29037824092993686,0.8902138324103642,0.9817703090206553
N,0.9957878315132606,0.28983335603687055,0.8902138324103642,0.9817703090206553
N,0.9957799312285089,0.2892884711438042,0.8902138324103642,0.9817703090206553
N,0.9957720012527403,0.28874358625073787,0.8902138324103642,0.9817703090206553
N,0.9957640414182617,0.2881987013576715,0.8902138324103642,0.9817703090206553
N,0.9958343158060206,0.2876538164646052,0.8902138324103642,0.9817703090206553
N,0.99582644302701,0.28710893157153883,0.8902138324103642,0.9817703090206553
N,0.995818540433925,0.2865640466784725,0.8902138324103642,0.9817703090206553
N,0.9958106078570864,0.28601916178540615,0.8902138324103642,0.9817703090206553
N,0.9958026451255246,0.28547427689233984,0.8902138324103642,0.9817703090206553
N,0.9957946520669682,0.2849293919992735,0.8902138324103642,0.9817703090206553
N,0.9957866285078305,0.28438450710620716,0.8902138324103642,0.9817703090206553
N,0.9957785742731979,0.2838396222131408,0.8902138324103642,0.9817703090206553
N,0.9957704891868167,0.2832947373200745,0.8902138324103642,0.9817703090206553
N,0.9957623730710802,0.2827498524270081,0.8902138324103642,0.9817703090206553
N,0.9957542257470159,0.2822049675339418,0.8902138324103642,0.9817703090206553
N,0.9957460470342724,0.28166008264087544,0.8902138324103642,0.9817703090206553
