cls,fpr,tpr,auc
N,0.0,0.0,0.879125540329139
N,0.0,0.0012713980838214593,0.879125540329139
N,0.0,0.00642510103074059,0.879125540329139
N,0.0,0.006879171774962539,0.879125540329139
N,0.0,0.01285020206148118,0.879125540329139
N,0.0,0.014053489533669345,0.879125540329139
N,0.0,0.017254688280434093,0.879125540329139
N,0.0,0.01736820596648958,0.879125540329139
N,0.0001840942562592047,0.019229896017799574,0.879125540329139
N,0.0001840942562592047,0.02072832947373201,0.879125540329139
N,0.0001840942562592047,0.022362984152931028,0.879125540329139
N,0.0001840942562592047,0.02340734686464151,0.879125540329139
N,0.0001840942562592047,0.024610634336829678,0.879125540329139
N,0.0001840942562592047,0.025087408618262724,0.879125540329139
N,0.0001840942562592047,0.02604095718112882,0.879125540329139
N,0.0001840942562592047,0.026426917313717477,0.879125540329139
N,0.0001840942562592047,0.02903782409299369,0.879125540329139
N,0.0001840942562592047,0.03198928393043636,0.879125540329139
N,0.0001840942562592047,0.034600190709712576,0.879125540329139
N,0.0001840942562592047,0.034963447305090135,0.879125540329139
N,0.0001840942562592047,0.03562184988421196,0.879125540329139
N,0.0001840942562592047,0.03578077464468964,0.879125540329139
N,0.0001840942562592047,0.03825546020069927,0.879125540329139
N,0.0001840942562592047,0.03877764155655451,0.879125540329139
N,0.0001840942562592047,0.03911819461472097,0.879125540329139
N,0.0001840942562592047,0.03923171230077646,0.879125540329139
N,0.0001840942562592047,0.041888026154474865,0.879125540329139
N,0.0001840942562592047,0.04356808790809608,0.879125540329139
N,0.0001840942562592047,0.04384053035462925,0.879125540329139
N,0.0001840942562592047,0.04602006992689461,0.879125540329139
N,0.0001840942562592047,0.046769286654860825,0.879125540329139
N,0.0001840942562592047,0.047427689233982655,0.879125540329139
N,0.0001840942562592047,0.04758661399446034,0.879125540329139
N,0.0001840942562592047,0.04981156064114789,0.879125540329139
N,0.0001840942562592047,0.050152113699314355,0.879125540329139
N,0.0001840942562592047,0.05387549380193434,0.879125540329139
N,0.0001840942562592047,0.05573718385324433,0.879125540329139
N,0.0001840942562592047,0.057848612813876404,0.879125540329139
N,0.0001840942562592047,0.0605276302047859,0.879125540329139
N,0.0001840942562592047,0.06359260772828407,0.879125540329139
N,0.0001840942562592047,0.0651364482586387,0.879125540329139
N,0.0001840942562592047,0.06645325341688235,0.879125540329139
N,0.0001840942562592047,0.06770194796349271,0.879125540329139
N,0.0001840942562592047,0.06888253189846978,0.879125540329139
N,0.0001840942562592047,0.06999500522181355,0.879125540329139
N,0.0001840942562592047,0.072424283703401,0.879125540329139
N,0.0001840942562592047,0.07514870816873269,0.879125540329139
N,0.0001840942562592047,0.07567088952458793,0.879125540329139
N,0.0001840942562592047,0.07655632747582074,0.879125540329139
N,0.0001840942562592047,0.076851473459565,0.879125540329139
N,0.0001840942562592047,0.07750987603868682,0.879125540329139
N,0.0001840942562592047,0.08118784906688462,0.879125540329139
N,0.0003681885125184094,0.08382145938337193,0.879125540329139
N,0.0003681885125184094,0.0841166053671162,0.879125540329139
N,0.0003681885125184094,0.0877037642464696,0.879125540329139
N,0.0005522827687776141,0.09036007810016801,0.879125540329139
N,0.0005522827687776141,0.10252917404531627,0.879125540329139
N,0.0005522827687776141,0.1030513554011715,0.879125540329139
N,0.0005522827687776141,0.10609362938745856,0.879125540329139
N,0.0005522827687776141,0.10686554965263588,0.879125540329139
N,0.0007363770250368188,0.10927212459701222,0.879125540329139
N,0.0011045655375552283,0.11149707124369977,0.879125540329139
N,0.001288659793814433,0.12371157426327022,0.879125540329139
N,0.0016568483063328424,0.12507378649593606,0.879125540329139
N,0.001840942562592047,0.12850202061481178,0.879125540329139
N,0.0022091310751104565,0.13047722835217726,0.879125540329139
N,0.0023932253313696614,0.13363302002451982,0.879125540329139
N,0.002577319587628866,0.13501793579439678,0.879125540329139
N,0.002761413843888071,0.1382872451527948,0.879125540329139
N,0.002761413843888071,0.14180629342051493,0.879125540329139
N,0.0029455081001472753,0.14421286836489125,0.879125540329139
N,0.0031296023564064803,0.14941197838623257,0.879125540329139
N,0.0034977908689248897,0.15084230123053172,0.879125540329139
N,0.003681885125184094,0.15417972120056306,0.879125540329139
N,0.004050073637702504,0.15574626526812876,0.879125540329139
N,0.004234167893961708,0.16028697271034828,0.879125540329139
N,0.004234167893961708,0.16498660491304545,0.879125540329139
N,0.004418262150220913,0.1717976660763747,0.879125540329139
N,0.004418262150220913,0.17561186032783907,0.879125540329139
N,0.004602356406480118,0.17690596194887162,0.879125540329139
N,0.004786450662739323,0.17765517867683786,0.879125540329139
N,0.005154639175257732,0.17779139990010442,0.879125540329139
N,0.005338733431516937,0.18022067838169187,0.879125540329139
N,0.005706921944035346,0.1817872224492576,0.879125540329139
N,0.005891016200294551,0.18433001861690052,0.879125540329139
N,0.005891016200294551,0.18880261544748672,0.879125540329139
N,0.005891016200294551,0.20128956091359035,0.879125540329139
N,0.0062592047128129605,0.20163011397175679,0.879125540329139
N,0.0062592047128129605,0.2090087635653635,0.879125540329139
N,0.0062592047128129605,0.21021205103755164,0.879125540329139
N,0.0062592047128129605,0.21491168324024884,0.879125540329139
N,0.0066273932253313695,0.2178631430776915,0.879125540329139
N,0.0066273932253313695,0.22510557144803162,0.879125540329139
N,0.0068114874815905745,0.22574127048994233,0.879125540329139
N,0.0068114874815905745,0.22714888979703038,0.879125540329139
N,0.006995581737849779,0.23007764609726195,0.879125540329139
N,0.0071796759941089834,0.23164419016482768,0.879125540329139
N,0.0071796759941089834,0.23395995096035963,0.879125540329139
N,0.0071796759941089834,0.23759251691413522,0.879125540329139
N,0.007547864506627393,0.23809199473277937,0.879125540329139
N,0.007731958762886598,0.2414521182400218,0.879125540329139
N,0.007916053019145802,0.24295055169595423,0.879125540329139
N,0.007916053019145802,0.24556145847523045,0.879125540329139
N,0.007916053019145802,0.2460836398310857,0.879125540329139
N,0.007916053019145802,0.24792262634518458,0.879125540329139
N,0.008100147275405008,0.24833129001498433,0.879125540329139
N,0.008100147275405008,0.2523044090269264,0.879125540329139
N,0.008284241531664212,0.25480179812014714,0.879125540329139
N,0.008284241531664212,0.25727648367615674,0.879125540329139
N,0.008652430044182622,0.25761703673432323,0.879125540329139
N,0.008652430044182622,0.2636561776324751,0.879125540329139
N,0.008836524300441826,0.26451891204649686,0.879125540329139
N,0.00902061855670103,0.2662443808745403,0.879125540329139
N,0.009204712812960236,0.2667211551559733,0.879125540329139
N,0.00938880706921944,0.2729646278890251,0.879125540329139
N,0.009572901325478646,0.27643826908232305,0.879125540329139
N,0.00975699558173785,0.28794896244834944,0.879125540329139
N,0.009941089837997054,0.28810788720882713,0.879125540329139
N,0.009941089837997054,0.2929437406347909,0.879125540329139
N,0.010309278350515464,0.29485083776052307,0.879125540329139
N,0.010309278350515464,0.3012078281796304,0.879125540329139
N,0.010493372606774668,0.3015029741633746,0.879125540329139
N,0.010493372606774668,0.30411388094265085,0.879125540329139
N,0.010677466863033874,0.30583934977069427,0.879125540329139
N,0.010861561119293078,0.3090178449802479,0.879125540329139
N,0.011229749631811487,0.30997139354311404,0.879125540329139
N,0.011229749631811487,0.31321799936430095,0.879125540329139
N,0.011413843888070692,0.3139672160922672,0.879125540329139
N,0.011597938144329897,0.31730463606229853,0.879125540329139
N,0.011782032400589101,0.319756618081097,0.879125540329139
N,0.011782032400589101,0.32161830813240705,0.879125540329139
N,0.012150220913107511,0.3228897062162285,0.879125540329139
N,0.012334315169366715,0.32520546701176045,0.879125540329139
N,0.012518409425625921,0.32629523679789313,0.879125540329139
N,0.012702503681885125,0.3291104754120692,0.879125540329139
N,0.01288659793814433,0.329292103709758,0.879125540329139
N,0.01288659793814433,0.3335149616310221,0.879125540329139
N,0.013070692194403535,0.33435499250783274,0.879125540329139
N,0.013254786450662739,0.33571720474049854,0.879125540329139
N,0.013254786450662739,0.33694319574989784,0.879125540329139
N,0.013254786450662739,0.34048494755482905,0.879125540329139
N,0.013254786450662739,0.34257367297825003,0.879125540329139
N,0.013438880706921945,0.3454116151296372,0.879125540329139
N,0.013622974963181149,0.3470235662716251,0.879125540329139
N,0.013622974963181149,0.34956636243926803,0.879125540329139
N,0.013807069219440353,0.3500431367207011,0.879125540329139
N,0.013807069219440353,0.3562866094537529,0.879125540329139
N,0.014175257731958763,0.35696771557008583,0.879125540329139
N,0.014359351988217967,0.36012350724242836,0.879125540329139
N,0.014543446244477173,0.36198519729373835,0.879125540329139
N,0.014727540500736377,0.3652318031149253,0.879125540329139
N,0.014911634756995583,0.3655496526358807,0.879125540329139
N,0.014911634756995583,0.367956227580257,0.879125540329139
N,0.015095729013254787,0.36977251055714483,0.879125540329139
N,0.015095729013254787,0.37099850156654407,0.879125540329139
N,0.01527982326951399,0.37528947009944147,0.879125540329139
N,0.015463917525773196,0.37574354084366346,0.879125540329139
N,0.015832106038291605,0.3773554919856514,0.879125540329139
N,0.015832106038291605,0.3802842482858829,0.879125540329139
N,0.016200294550810016,0.3814875357580711,0.879125540329139
N,0.01638438880706922,0.384484402669936,0.879125540329139
N,0.01675257731958763,0.3881169686237116,0.879125540329139
N,0.016936671575846832,0.3898651409889661,0.879125540329139
N,0.016936671575846832,0.39111383553557644,0.879125540329139
N,0.01712076583210604,0.3949961403986741,0.879125540329139
N,0.017304860088365244,0.39728919765699494,0.879125540329139
N,0.017488954344624448,0.39967306906416017,0.879125540329139
N,0.017857142857142856,0.40021795395722654,0.879125540329139
N,0.01804123711340206,0.4032829314807247,0.879125540329139
N,0.018225331369661268,0.40373700222494663,0.879125540329139
N,0.018409425625920472,0.4096172183626209,0.879125540329139
N,0.01877761413843888,0.4114107978022976,0.879125540329139
N,0.01877761413843888,0.4153612132770286,0.879125540329139
N,0.018961708394698084,0.41663261136085,0.879125540329139
N,0.01914580265095729,0.4173591245516051,0.879125540329139
N,0.019329896907216496,0.41992462425645916,0.879125540329139
N,0.019329896907216496,0.42019706670299234,0.879125540329139
N,0.0195139911634757,0.4204468056123144,0.879125540329139
N,0.019882179675994108,0.42180901784498026,0.879125540329139
N,0.020066273932253315,0.4231712300776461,0.879125540329139
N,0.020066273932253315,0.4241474821777233,0.879125540329139
N,0.02025036818851252,0.4243518140126232,0.879125540329139
N,0.020434462444771723,0.42659946419652184,0.879125540329139
N,0.020434462444771723,0.42725786677564365,0.879125540329139
N,0.020618556701030927,0.42968714525723106,0.879125540329139
N,0.020986745213549336,0.4298233664804977,0.879125540329139
N,0.020986745213549336,0.43045906552240837,0.879125540329139
N,0.021170839469808543,0.43152613177133,0.879125540329139
N,0.021354933726067747,0.43338782182263996,0.879125540329139
N,0.02153902798232695,0.4340235208645507,0.879125540329139
N,0.021723122238586155,0.43620306043681606,0.879125540329139
N,0.022091310751104567,0.43795123280207054,0.879125540329139
N,0.022091310751104567,0.44110702447441313,0.879125540329139
N,0.02227540500736377,0.44256005085592337,0.879125540329139
N,0.022459499263622975,0.44319574989783406,0.879125540329139
N,0.02264359351988218,0.44419470553512236,0.879125540329139
N,0.022827687776141383,0.44439903737002223,0.879125540329139
N,0.023195876288659795,0.4468283158516097,0.879125540329139
N,0.023195876288659795,0.44866730236570856,0.879125540329139
N,0.023564064801178203,0.4495754438541525,0.879125540329139
N,0.023748159057437407,0.4515052445170958,0.879125540329139
N,0.02411634756995582,0.45329882395677246,0.879125540329139
N,0.024300441826215022,0.4550924033964492,0.879125540329139
N,0.024484536082474227,0.45527403169413794,0.879125540329139
N,0.02466863033873343,0.45627298733142624,0.879125540329139
N,0.024852724594992635,0.4565227262407483,0.879125540329139
N,0.025036818851251842,0.45681787222449255,0.879125540329139
N,0.025220913107511046,0.4575216818780366,0.879125540329139
N,0.02540500736377025,0.4609953230713345,0.879125540329139
N,0.02577319587628866,0.4616083185760341,0.879125540329139
N,0.025957290132547866,0.4621532034691005,0.879125540329139
N,0.025957290132547866,0.4638105616855106,0.879125540329139
N,0.02614138438880707,0.4647641102483767,0.879125540329139
N,0.026509572901325478,0.4647868137855878,0.879125540329139
N,0.026693667157584682,0.46807882668119694,0.879125540329139
N,0.027061855670103094,0.4682377514416746,0.879125540329139
N,0.027245949926362298,0.4700313308813513,0.879125540329139
N,0.027614138438880706,0.4712573218907506,0.879125540329139
N,0.02779823269513991,0.47309630840484945,0.879125540329139
N,0.02816642120765832,0.476479135449303,0.879125540329139
N,0.02816642120765832,0.48022521908913407,0.879125540329139
N,0.028350515463917526,0.4839485991917541,0.879125540329139
N,0.02853460972017673,0.486264359987286,0.879125540329139
N,0.028718703976435934,0.4866503201198747,0.879125540329139
N,0.02890279823269514,0.48717250147572994,0.879125540329139
N,0.029086892488954345,0.4873995368478409,0.879125540329139
N,0.02927098674521355,0.4890341915270399,0.879125540329139
N,0.029639175257731958,0.4910775098760387,0.879125540329139
N,0.029823269513991165,0.49159969123189395,0.879125540329139
N,0.030191458026509573,0.49291649639013757,0.879125540329139
N,0.030191458026509573,0.4936657131181038,0.879125540329139
N,0.03055964653902798,0.4938019343413704,0.879125540329139
N,0.030743740795287185,0.4955955137810471,0.879125540329139
N,0.030743740795287185,0.4974117967579349,0.879125540329139
N,0.030927835051546393,0.4989556372882895,0.879125540329139
N,0.031111929307805597,0.4996140398674113,0.879125540329139
N,0.031480117820324005,0.5035644553421423,0.879125540329139
N,0.03166421207658321,0.505358034781819,0.879125540329139
N,0.03184830633284241,0.5063796939563184,0.879125540329139
N,0.03203240058910162,0.5079008309494619,0.879125540329139
N,0.03221649484536082,0.5130091268219589,0.879125540329139
N,0.03240058910162003,0.5131226445080144,0.879125540329139
N,0.032584683357879236,0.5156654406756572,0.879125540329139
N,0.03276877761413844,0.517913090859556,0.879125540329139
N,0.03276877761413844,0.5209326613086319,0.879125540329139
N,0.03313696612665685,0.5218408027970758,0.879125540329139
N,0.03332106038291605,0.5237251963855969,0.879125540329139
N,0.03368924889543446,0.5244063025019298,0.879125540329139
N,0.033873343151693665,0.5292421559278936,0.879125540329139
N,0.03424153166421208,0.5298551514325932,0.879125540329139
N,0.034425625920471284,0.5304000363256596,0.879125540329139
N,0.03460972017673049,0.5317395450211143,0.879125540329139
N,0.03479381443298969,0.533079053716569,0.879125540329139
N,0.0351620029455081,0.5331017572537802,0.879125540329139
N,0.035346097201767304,0.5352585932888344,0.879125540329139
N,0.03571428571428571,0.5354402215865232,0.879125540329139
N,0.035898379970544916,0.5357126640330564,0.879125540329139
N,0.03626656848306333,0.5361213277028561,0.879125540329139
N,0.036450662739322535,0.5387549380193434,0.879125540329139
N,0.036818851251840944,0.5396630795077874,0.879125540329139
N,0.03700294550810015,0.5400036325659537,0.879125540329139
N,0.037371134020618556,0.5406847386822867,0.879125540329139
N,0.03755522827687776,0.5455432956454616,0.879125540329139
N,0.03792341678939617,0.5457022204059393,0.879125540329139
N,0.03810751104565538,0.5460881805385279,0.879125540329139
N,0.03829160530191458,0.5471098397130273,0.879125540329139
N,0.03865979381443299,0.5477228352177269,0.879125540329139
N,0.038843888070692195,0.5489261226899151,0.879125540329139
N,0.0392120765832106,0.549380193434137,0.879125540329139
N,0.0392120765832106,0.5523089497343686,0.879125540329139
N,0.03958026509572901,0.5535803478181901,0.879125540329139
N,0.039764359351988215,0.5548744494392226,0.879125540329139
N,0.04013254786450663,0.5551241883485447,0.879125540329139
N,0.040316642120765835,0.5565091041184217,0.879125540329139
N,0.04068483063328424,0.5583934977069427,0.879125540329139
N,0.04086892488954345,0.561957953049085,0.879125540329139
N,0.04142120765832106,0.5620941742723516,0.879125540329139
N,0.04142120765832106,0.5622530990328293,0.879125540329139
N,0.04178939617083947,0.5623893202560959,0.879125540329139
N,0.04197349042709867,0.5627298733142624,0.879125540329139
N,0.042341678939617086,0.5627979839258956,0.879125540329139
N,0.04252577319587629,0.563342868818962,0.879125540329139
N,0.0428939617083947,0.5636380148027063,0.879125540329139
N,0.0430780559646539,0.5659310720610271,0.879125540329139
N,0.04344624447717231,0.5662035145075602,0.879125540329139
N,0.043630338733431515,0.5679743904100258,0.879125540329139
N,0.04399852724594993,0.5684057576170367,0.879125540329139
N,0.044182621502209134,0.5694728238659583,0.879125540329139
N,0.04436671575846834,0.569858783998547,0.879125540329139
N,0.04455081001472754,0.5701085229078691,0.879125540329139
N,0.04491899852724595,0.5705171865776688,0.879125540329139
N,0.045103092783505154,0.5715615492893793,0.879125540329139
N,0.04547128129602356,0.5719475094219679,0.879125540329139
N,0.045655375552282766,0.5723334695545566,0.879125540329139
N,0.04583946980854197,0.5737864959360668,0.879125540329139
N,0.046207658321060385,0.5739454206965445,0.879125540329139
N,0.04639175257731959,0.5766925486990874,0.879125540329139
N,0.046759941089838,0.5768287699223539,0.879125540329139
N,0.0469440353460972,0.5787812741225082,0.879125540329139
N,0.04731222385861561,0.5788720882713527,0.879125540329139
N,0.047496318114874814,0.5800072651319076,0.879125540329139
N,0.04786450662739323,0.5806202606366072,0.879125540329139
N,0.04804860088365243,0.581028924306407,0.879125540329139
N,0.04841678939617084,0.5812105526040957,0.879125540329139
N,0.048600883652430045,0.5824819506879172,0.879125540329139
N,0.04896907216494845,0.5827543931344503,0.879125540329139
N,0.04915316642120766,0.5835490169368388,0.879125540329139
N,0.049521354933726065,0.5836852381601053,0.879125540329139
N,0.04970544918998527,0.5841620124415384,0.879125540329139
N,0.05025773195876289,0.5843890478136494,0.879125540329139
N,0.05044182621502209,0.5849112291695046,0.879125540329139
N,0.0508100147275405,0.5856377423602598,0.879125540329139
N,0.050994108983799705,0.5857512600463152,0.879125540329139
N,0.05136229749631811,0.5857966671207374,0.879125540329139
N,0.05173048600883652,0.5865458838487037,0.879125540329139
N,0.052098674521354936,0.5870680652045589,0.879125540329139
N,0.05228276877761414,0.5872723970394588,0.879125540329139
N,0.05265095729013255,0.5874086182627253,0.879125540329139
N,0.05283505154639175,0.5885210915860691,0.879125540329139
N,0.05320324005891016,0.5895654542977796,0.879125540329139
N,0.05357142857142857,0.5900195250420015,0.879125540329139
N,0.053939617083946984,0.5901103391908459,0.879125540329139
N,0.05412371134020619,0.5904735957862235,0.879125540329139
N,0.054491899852724596,0.5908368523816011,0.879125540329139
N,0.0546759941089838,0.5926985424329111,0.879125540329139
N,0.05504418262150221,0.5930390954910775,0.879125540329139
N,0.05522827687776141,0.5937883122190437,0.879125540329139
N,0.05559646539027982,0.5941969758888435,0.879125540329139
N,0.05578055964653903,0.5949688961540208,0.879125540329139
N,0.05614874815905744,0.5951051173772873,0.879125540329139
N,0.05651693667157585,0.5955818916587204,0.879125540329139
N,0.05706921944035346,0.5957862234936203,0.879125540329139
N,0.057253313696612664,0.5978749489170413,0.879125540329139
N,0.05762150220913108,0.5978976524542524,0.879125540329139
N,0.05780559646539028,0.5984425373473187,0.879125540329139
N,0.05817378497790869,0.5989420151659629,0.879125540329139
N,0.058357879234167895,0.5997593425055624,0.879125540329139
N,0.0587260677466863,0.5999409708032512,0.879125540329139
N,0.05891016200294551,0.6004404486218953,0.879125540329139
N,0.059278350515463915,0.6004631521591064,0.879125540329139
N,0.05946244477172312,0.6008718158289061,0.879125540329139
N,0.059830633284241534,0.6013258865731281,0.879125540329139
N,0.06001472754050074,0.6019161785406166,0.879125540329139
N,0.060382916053019146,0.6027789129546384,0.879125540329139
N,0.06056701030927835,0.6035281296826045,0.879125540329139
N,0.06093519882179676,0.603868682740771,0.879125540329139
N,0.06111929307805596,0.6051173772873814,0.879125540329139
N,0.06148748159057437,0.6055260409571811,0.879125540329139
N,0.06167157584683358,0.6057530763292921,0.879125540329139
N,0.06203976435935199,0.6063887753712028,0.879125540329139
N,0.062223858615611194,0.6081823548108796,0.879125540329139
N,0.0625920471281296,0.6082731689597239,0.879125540329139
N,0.0627761413843888,0.6087726467783681,0.879125540329139
N,0.06314432989690721,0.6093856422830677,0.879125540329139
N,0.06332842415316642,0.6101802660854562,0.879125540329139
N,0.06388070692194403,0.6102256731598783,0.879125540329139
N,0.06406480117820323,0.6105208191436226,0.879125540329139
N,0.06443298969072164,0.6107251509785224,0.879125540329139
N,0.06461708394698086,0.6118376243018663,0.879125540329139
N,0.06516936671575847,0.6127457657903101,0.879125540329139
N,0.06535346097201768,0.6131090223856877,0.879125540329139
N,0.06572164948453608,0.6132225400717431,0.879125540329139
N,0.06590574374079529,0.6139263497252871,0.879125540329139
N,0.0662739322533137,0.61481178767652,0.879125540329139
N,0.0664580265095729,0.6172410661581075,0.879125540329139
N,0.06701030927835051,0.6174453979930073,0.879125540329139
N,0.06719440353460972,0.6179902828860736,0.879125540329139
N,0.06774668630338733,0.6182627253326068,0.879125540329139
N,0.06793078055964653,0.6185578713163511,0.879125540329139
N,0.06829896907216494,0.6187167960768287,0.879125540329139
N,0.06848306332842416,0.6193751986559506,0.879125540329139
N,0.06885125184094257,0.6208055215002497,0.879125540329139
N,0.06903534609720177,0.6219406983608046,0.879125540329139
N,0.06940353460972018,0.6221223266584934,0.879125540329139
N,0.06958762886597938,0.6235753530400037,0.879125540329139
N,0.06995581737849779,0.623893202560959,0.879125540329139
N,0.070139911634757,0.6244380874540253,0.879125540329139
N,0.0705081001472754,0.6253235254052582,0.879125540329139
N,0.07087628865979381,0.6255051537029469,0.879125540329139
N,0.07124447717231222,0.6257775961494801,0.879125540329139
N,0.07161266568483063,0.6261181492076465,0.879125540329139
N,0.07198085419734904,0.626458702265813,0.879125540329139
N,0.07216494845360824,0.6270262906960905,0.879125540329139
N,0.07290132547864507,0.6275257685147346,0.879125540329139
N,0.07308541973490428,0.6279571357217455,0.879125540329139
N,0.07345360824742268,0.6280252463333788,0.879125540329139
N,0.07363770250368189,0.6282295781682786,0.879125540329139
N,0.0740058910162003,0.6283657993915452,0.879125540329139
N,0.07455817378497791,0.6289333878218226,0.879125540329139
N,0.07492636229749632,0.6293193479544112,0.879125540329139
N,0.07511045655375552,0.6295690868637334,0.879125540329139
N,0.07547864506627393,0.6298642328474776,0.879125540329139
N,0.07566273932253313,0.6300004540707442,0.879125540329139
N,0.07621502209131076,0.6301593788312219,0.879125540329139
N,0.07639911634756996,0.6303864142033329,0.879125540329139
N,0.07676730486008837,0.6310675203196658,0.879125540329139
N,0.07695139911634757,0.6314534804522545,0.879125540329139
N,0.07731958762886598,0.6329973209826091,0.879125540329139
N,0.07750368188512519,0.6334059846524088,0.879125540329139
N,0.0778718703976436,0.6337692412477864,0.879125540329139
N,0.0780559646539028,0.6339508695454752,0.879125540329139
N,0.0784241531664212,0.6341097943059528,0.879125540329139
N,0.07860824742268041,0.6344049402896972,0.879125540329139
N,0.07897643593519882,0.6344276438269082,0.879125540329139
N,0.07916053019145802,0.6349044181083413,0.879125540329139
N,0.07952871870397643,0.6351087499432412,0.879125540329139
N,0.07971281296023564,0.6354265994641966,0.879125540329139
N,0.08008100147275406,0.6355628206874631,0.879125540329139
N,0.08026509572901326,0.6356536348363075,0.879125540329139
N,0.08063328424153167,0.6357217454479408,0.879125540329139
N,0.08081737849779087,0.6358352631339963,0.879125540329139
N,0.08118556701030928,0.6360850020433183,0.879125540329139
N,0.08155375552282769,0.63694773645734,0.879125540329139
N,0.0819219440353461,0.6372428824410843,0.879125540329139
N,0.0821060382916053,0.6376742496480952,0.879125540329139
N,0.08247422680412371,0.6381964310039504,0.879125540329139
N,0.08265832106038291,0.6384234663760614,0.879125540329139
N,0.08302650957290132,0.63880942650865,0.879125540329139
N,0.08321060382916053,0.6392862007900831,0.879125540329139
N,0.08339469808541973,0.6396721609226718,0.879125540329139
N,0.08376288659793814,0.6402170458157381,0.879125540329139
N,0.08413107511045656,0.6403986741134269,0.879125540329139
N,0.08449926362297497,0.6405803024111156,0.879125540329139
N,0.08486745213549338,0.6410797802297598,0.879125540329139
N,0.08505154639175258,0.6413749262135041,0.879125540329139
N,0.08541973490427099,0.6413976297507151,0.879125540329139
N,0.08560382916053019,0.6415565545111929,0.879125540329139
N,0.0859720176730486,0.6416700721972484,0.879125540329139
N,0.0861561119293078,0.641828996957726,0.879125540329139
N,0.08652430044182621,0.6421695500158925,0.879125540329139
N,0.08670839469808542,0.6426236207601145,0.879125540329139
N,0.08707658321060383,0.6426690278345366,0.879125540329139
N,0.08726067746686303,0.6431230985787586,0.879125540329139
N,0.08762886597938144,0.6433728374880806,0.879125540329139
N,0.08799705449189986,0.6435317622485583,0.879125540329139
N,0.08836524300441827,0.644144757753258,0.879125540329139
N,0.08854933726067747,0.6454388593742905,0.879125540329139
N,0.08891752577319588,0.6457567088952458,0.879125540329139
N,0.08910162002945508,0.6461880761022567,0.879125540329139
N,0.08946980854197349,0.646710257458112,0.879125540329139
N,0.0896539027982327,0.6468464786813786,0.879125540329139
N,0.09020618556701031,0.6468691822185897,0.879125540329139
N,0.09039027982326951,0.6479362484675112,0.879125540329139
N,0.09075846833578792,0.6480497661535667,0.879125540329139
N,0.09094256259204712,0.6488897970303773,0.879125540329139
N,0.09131075110456553,0.6491395359396994,0.879125540329139
N,0.09167893961708394,0.6493438677745993,0.879125540329139
N,0.09204712812960236,0.6493665713118104,0.879125540329139
N,0.09223122238586157,0.6500476774281433,0.879125540329139
N,0.09259941089837997,0.6503201198746765,0.879125540329139
N,0.09278350515463918,0.6508195976933207,0.879125540329139
N,0.09315169366715759,0.6512963719747537,0.879125540329139
N,0.09333578792341679,0.6518639604050311,0.879125540329139
N,0.0938880706921944,0.6519093674794533,0.879125540329139
N,0.09407216494845361,0.6520228851655088,0.879125540329139
N,0.09425625920471281,0.6521818099259865,0.879125540329139
N,0.09462444771723122,0.6527948054306861,0.879125540329139
N,0.09499263622974963,0.653248876174908,0.879125540329139
N,0.09517673048600883,0.6539980929028743,0.879125540329139
N,0.09554491899852724,0.6540434999772965,0.879125540329139
N,0.09591310751104566,0.6543840530354629,0.879125540329139
N,0.09628129602356407,0.6547700131680516,0.879125540329139
N,0.09646539027982327,0.6552694909866957,0.879125540329139
N,0.09683357879234168,0.6558824864913954,0.879125540329139
N,0.09701767304860089,0.6560868183262952,0.879125540329139
N,0.0973858615611193,0.6563592607728284,0.879125540329139
N,0.0975699558173785,0.656495481996095,0.879125540329139
N,0.09812223858615611,0.6567452209054171,0.879125540329139
N,0.09830633284241531,0.6568360350542615,0.879125540329139
N,0.09867452135493372,0.6570630704263725,0.879125540329139
N,0.09885861561119293,0.6572901057984833,0.879125540329139
N,0.09922680412371133,0.6574944376333833,0.879125540329139
N,0.09941089837997054,0.6582890614357717,0.879125540329139
N,0.09977908689248896,0.6584706897334605,0.879125540329139
N,0.09996318114874816,0.6592199064614267,0.879125540329139
N,0.10033136966126657,0.6592426099986378,0.879125540329139
N,0.10051546391752578,0.6594242382963266,0.879125540329139
N,0.10088365243004419,0.6596739772056487,0.879125540329139
N,0.10106774668630339,0.6600372338010262,0.879125540329139
N,0.1014359351988218,0.6600599373382373,0.879125540329139
N,0.101620029455081,0.6603777868591927,0.879125540329139
N,0.10198821796759941,0.6609680788266812,0.879125540329139
N,0.10217231222385861,0.6617627026290696,0.879125540329139
N,0.10254050073637702,0.6617854061662807,0.879125540329139
N,0.10272459499263623,0.6624438087454025,0.879125540329139
N,0.10290868924889543,0.6628751759524134,0.879125540329139
N,0.10309278350515463,0.6633973573082687,0.879125540329139
N,0.10346097201767304,0.6634200608454798,0.879125540329139
N,0.10364506627393226,0.6641011669618127,0.879125540329139
N,0.10401325478645067,0.6642600917222903,0.879125540329139
N,0.10419734904270987,0.6648276801525678,0.879125540329139
N,0.10456553755522828,0.6651455296735231,0.879125540329139
N,0.10474963181148748,0.6652817508967898,0.879125540329139
N,0.10511782032400589,0.6654179721200563,0.879125540329139
N,0.1053019145802651,0.665576896880534,0.879125540329139
N,0.1056701030927835,0.6656904145665895,0.879125540329139
N,0.10585419734904271,0.6659628570131226,0.879125540329139
N,0.10622238586156112,0.6663034100712891,0.879125540329139
N,0.10640648011782032,0.666507741906189,0.879125540329139
N,0.10677466863033873,0.6667801843527221,0.879125540329139
N,0.10714285714285714,0.6669618126504109,0.879125540329139
N,0.10751104565537556,0.6670299232620442,0.879125540329139
N,0.10769513991163476,0.6673023657085774,0.879125540329139
N,0.10806332842415317,0.6673250692457885,0.879125540329139
N,0.10824742268041238,0.6677791399900105,0.879125540329139
N,0.10861561119293078,0.6678018435272215,0.879125540329139
N,0.10879970544918999,0.6678699541388549,0.879125540329139
N,0.10898379970544919,0.6679607682876992,0.879125540329139
N,0.1093519882179676,0.6679834718249104,0.879125540329139
N,0.1095360824742268,0.6684375425691322,0.879125540329139
N,0.11008836524300442,0.6684829496435545,0.879125540329139
N,0.11027245949926362,0.6688916133133542,0.879125540329139
N,0.11064064801178203,0.6689143168505653,0.879125540329139
N,0.11082474226804123,0.6699813830994868,0.879125540329139
N,0.11137702503681886,0.6700949007855423,0.879125540329139
N,0.11156111929307806,0.6701857149343867,0.879125540329139
N,0.11192930780559647,0.6702992326204422,0.879125540329139
N,0.11211340206185567,0.6705489715297643,0.879125540329139
N,0.11248159057437408,0.6706397856786087,0.879125540329139
N,0.11266568483063329,0.6708895245879308,0.879125540329139
N,0.1130338733431517,0.6710257458111973,0.879125540329139
N,0.1132179675994109,0.671865776688008,0.879125540329139
N,0.11377025036818851,0.6718884802252191,0.879125540329139
N,0.11395434462444771,0.6721155155973301,0.879125540329139
N,0.11432253313696612,0.6721382191345412,0.879125540329139
N,0.11450662739322533,0.6726376969531853,0.879125540329139
N,0.11524300441826216,0.6726604004903964,0.879125540329139
N,0.11542709867452136,0.6734323207555737,0.879125540329139
N,0.11579528718703977,0.6735231349044181,0.879125540329139
N,0.11597938144329897,0.6737955773509513,0.879125540329139
N,0.11653166421207659,0.674204241020751,0.879125540329139
N,0.11671575846833579,0.6744766834672842,0.879125540329139
N,0.1170839469808542,0.6745674976161286,0.879125540329139
N,0.1172680412371134,0.6751804931208282,0.879125540329139
N,0.11763622974963181,0.6752486037324615,0.879125540329139
N,0.11782032400589101,0.6755664532534169,0.879125540329139
N,0.11818851251840942,0.6757480815511057,0.879125540329139
N,0.11837260677466863,0.67583889569995,0.879125540329139
N,0.11874079528718703,0.6759751169232167,0.879125540329139
N,0.11929307805596466,0.6760432275348499,0.879125540329139
N,0.11966126656848307,0.6762475593697498,0.879125540329139
N,0.11984536082474227,0.6764518912046497,0.879125540329139
N,0.12076583210603829,0.6767924442628162,0.879125540329139
N,0.1209499263622975,0.6771784043954048,0.879125540329139
N,0.1213181148748159,0.6780638423466376,0.879125540329139
N,0.12150220913107511,0.6784270989420151,0.879125540329139
N,0.12168630338733431,0.6784952095536485,0.879125540329139
N,0.12187039764359352,0.6786541343141261,0.879125540329139
N,0.12223858615611193,0.6788811696862371,0.879125540329139
N,0.12242268041237113,0.6790627979839259,0.879125540329139
N,0.12279086892488954,0.6792217227444036,0.879125540329139
N,0.12297496318114874,0.6795849793397811,0.879125540329139
N,0.12334315169366716,0.6800844571584252,0.879125540329139
N,0.12352724594992637,0.6803114925305362,0.879125540329139
N,0.12389543446244478,0.6804477137538029,0.879125540329139
N,0.12407952871870398,0.6806293420514916,0.879125540329139
N,0.12444771723122239,0.6806974526631249,0.879125540329139
N,0.12463181148748159,0.6808790809608137,0.879125540329139
N,0.125,0.6809925986468692,0.879125540329139
N,0.1253681885125184,0.6812877446306135,0.879125540329139
N,0.12573637702503682,0.6813785587794579,0.879125540329139
N,0.12592047128129602,0.6817191118376243,0.879125540329139
N,0.12628865979381443,0.6819234436725242,0.879125540329139
N,0.12647275405007363,0.6822185896562685,0.879125540329139
N,0.12702503681885124,0.682581846251646,0.879125540329139
N,0.12720913107511045,0.6826726604004903,0.879125540329139
N,0.12757731958762886,0.6826953639377015,0.879125540329139
N,0.12776141384388806,0.6834445806656677,0.879125540329139
N,0.12812960235640647,0.683739726649412,0.879125540329139
N,0.12831369661266567,0.6839213549471007,0.879125540329139
N,0.12868188512518408,0.6840575761703673,0.879125540329139
N,0.12886597938144329,0.6846024610634337,0.879125540329139
N,0.12923416789396172,0.6847840893611224,0.879125540329139
N,0.12941826215022093,0.6864187440403214,0.879125540329139
N,0.13015463917525774,0.6867592970984879,0.879125540329139
N,0.13033873343151695,0.6869182218589657,0.879125540329139
N,0.13070692194403535,0.6869863324705989,0.879125540329139
N,0.13089101620029456,0.6871225536938655,0.879125540329139
N,0.13125920471281297,0.6873041819915543,0.879125540329139
N,0.13162739322533137,0.6873949961403987,0.879125540329139
N,0.13199558173784978,0.687485810289243,0.879125540329139
N,0.13217967599410899,0.6881215093311538,0.879125540329139
N,0.1327319587628866,0.688166916405576,0.879125540329139
N,0.1329160530191458,0.6886663942242202,0.879125540329139
N,0.1332842415316642,0.6888934295963312,0.879125540329139
N,0.13346833578792341,0.6892112791172865,0.879125540329139
N,0.13402061855670103,0.6893929074149753,0.879125540329139
N,0.13420471281296023,0.6897107569359306,0.879125540329139
N,0.13457290132547864,0.6898242746219861,0.879125540329139
N,0.13475699558173784,0.6902329382917859,0.879125540329139
N,0.13512518409425625,0.6903918630522635,0.879125540329139
N,0.13530927835051546,0.6909367479453299,0.879125540329139
N,0.13567746686303386,0.6911410797802298,0.879125540329139
N,0.13604565537555227,0.6915043363756073,0.879125540329139
N,0.13641384388807068,0.6917994823593516,0.879125540329139
N,0.13659793814432988,0.6928438450710621,0.879125540329139
N,0.13696612665684832,0.6928665486082731,0.879125540329139
N,0.13715022091310752,0.6933206193524951,0.879125540329139
N,0.13770250368188514,0.6935022476501839,0.879125540329139
N,0.13807069219440354,0.6940471325432502,0.879125540329139
N,0.13825478645066275,0.6941379466920946,0.879125540329139
N,0.13862297496318116,0.694228760840939,0.879125540329139
N,0.13880706921944036,0.6945693138991055,0.879125540329139
N,0.13917525773195877,0.6948190528084276,0.879125540329139
N,0.13935935198821797,0.6951141987921718,0.879125540329139
N,0.13972754050073638,0.6952277164782273,0.879125540329139
N,0.13991163475699558,0.6966353357853153,0.879125540329139
N,0.140279823269514,0.6969304817690596,0.879125540329139
N,0.1404639175257732,0.6971575171411706,0.879125540329139
N,0.1406480117820324,0.6972256277528038,0.879125540329139
N,0.1408321060382916,0.6985197293738364,0.879125540329139
N,0.14120029455081,0.6985651364482587,0.879125540329139
N,0.14120029455081,0.6996094991599692,0.879125540329139
N,0.14156848306332842,0.6997003133088135,0.879125540329139
N,0.14175257731958762,0.6997911274576579,0.879125540329139
N,0.14230486008836524,0.7001089769786133,0.879125540329139
N,0.14248895434462444,0.7006084547972574,0.879125540329139
N,0.14322533136966126,0.7006311583344685,0.879125540329139
N,0.14340942562592046,0.7009263043182128,0.879125540329139
N,0.14377761413843887,0.7009717113926349,0.879125540329139
N,0.14396170839469807,0.70169822458339,0.879125540329139
N,0.14432989690721648,0.7017663351950234,0.879125540329139
N,0.14451399116347569,0.7021977024020343,0.879125540329139
N,0.14488217967599412,0.7022885165508786,0.879125540329139
N,0.14506627393225333,0.7024247377741452,0.879125540329139
N,0.14543446244477173,0.7025836625346229,0.879125540329139
N,0.14561855670103094,0.7035599146347001,0.879125540329139
N,0.14598674521354935,0.7037415429323889,0.879125540329139
N,0.14617083946980855,0.7041956136766108,0.879125540329139
N,0.14635493372606775,0.7043999455115106,0.879125540329139
N,0.14653902798232696,0.704468056123144,0.879125540329139
N,0.14690721649484537,0.7046496844208328,0.879125540329139
N,0.14709131075110457,0.7053080869999546,0.879125540329139
N,0.14745949926362298,0.7053534940743768,0.879125540329139
N,0.14764359351988218,0.7055351223720656,0.879125540329139
N,0.148379970544919,0.7056032329836989,0.879125540329139
N,0.148379970544919,0.7058075648185987,0.879125540329139
N,0.1487481590574374,0.7060118966534986,0.879125540329139
N,0.1489322533136966,0.706102710802343,0.879125540329139
N,0.14930044182621502,0.7062389320256096,0.879125540329139
N,0.14948453608247422,0.7069427416791536,0.879125540329139
N,0.15003681885125184,0.7070108522907869,0.879125540329139
N,0.15022091310751104,0.7074422194977977,0.879125540329139
N,0.15058910162002945,0.7075330336466421,0.879125540329139
N,0.15077319587628865,0.7077600690187531,0.879125540329139
N,0.15114138438880706,0.7078054760931753,0.879125540329139
N,0.15150957290132547,0.7082141397629751,0.879125540329139
N,0.15187776141384388,0.7087363211188303,0.879125540329139
N,0.15206185567010308,0.7092357989374745,0.879125540329139
N,0.15243004418262152,0.7093039095491077,0.879125540329139
N,0.15261413843888072,0.7099169050538073,0.879125540329139
N,0.15298232695139913,0.710053126277074,0.879125540329139
N,0.15316642120765833,0.710280161649185,0.879125540329139
N,0.15371870397643594,0.7103709757980293,0.879125540329139
N,0.15390279823269515,0.7108477500794623,0.879125540329139
N,0.15427098674521356,0.710983971302729,0.879125540329139
N,0.15445508100147276,0.7113018208236843,0.879125540329139
N,0.15500736377025037,0.7114153385097398,0.879125540329139
N,0.15519145802650958,0.7117104844934841,0.879125540329139
N,0.1557437407952872,0.7117785951051174,0.879125540329139
N,0.1559278350515464,0.7119829269400173,0.879125540329139
N,0.1562960235640648,0.7123007764609727,0.879125540329139
N,0.156480117820324,0.7130499931889388,0.879125540329139
N,0.15721649484536082,0.7132543250238387,0.879125540329139
N,0.15740058910162003,0.7134586568587385,0.879125540329139
N,0.15776877761413843,0.7134813603959497,0.879125540329139
N,0.15813696612665684,0.7138900240657494,0.879125540329139
N,0.15850515463917525,0.7140716523634382,0.879125540329139
N,0.15868924889543445,0.714503019570449,0.879125540329139
N,0.15905743740795286,0.7145257231076602,0.879125540329139
N,0.15924153166421207,0.7148662761658267,0.879125540329139
N,0.15960972017673047,0.7149343867774599,0.879125540329139
N,0.15979381443298968,0.7152522362984153,0.879125540329139
N,0.16034609720176732,0.7155700858193706,0.879125540329139
N,0.16034609720176732,0.7158425282659038,0.879125540329139
N,0.16089837997054493,0.7159106388775371,0.879125540329139
N,0.16108247422680413,0.7160468601008037,0.879125540329139
N,0.16163475699558175,0.7161830813240703,0.879125540329139
N,0.16181885125184095,0.7165236343822368,0.879125540329139
N,0.16237113402061856,0.7167052626799255,0.879125540329139
N,0.16273932253313697,0.7170912228125141,0.879125540329139
N,0.16310751104565538,0.7171593334241475,0.879125540329139
N,0.1634756995581738,0.7176815147800027,0.879125540329139
N,0.1638438880706922,0.7177042183172139,0.879125540329139
N,0.1640279823269514,0.7178177360032693,0.879125540329139
N,0.164580265095729,0.7178631430776915,0.879125540329139
N,0.16476435935198822,0.7181809925986469,0.879125540329139
N,0.16513254786450662,0.7182718067474912,0.879125540329139
N,0.16531664212076583,0.7185896562684466,0.879125540329139
N,0.16568483063328424,0.7188166916405576,0.879125540329139
N,0.16586892488954344,0.7189756164010352,0.879125540329139
N,0.16623711340206185,0.719134541161513,0.879125540329139
N,0.16642120765832105,0.7192480588475685,0.879125540329139
N,0.16678939617083946,0.7195659083685239,0.879125540329139
N,0.16697349042709866,0.720292421559279,0.879125540329139
N,0.16734167893961707,0.7208827135267675,0.879125540329139
N,0.16752577319587628,0.7211324524360896,0.879125540329139
N,0.16789396170839468,0.7211778595105117,0.879125540329139
N,0.16826215022091312,0.721473005494256,0.879125540329139
N,0.16863033873343153,0.7217908550152113,0.879125540329139
N,0.16881443298969073,0.7219497797756891,0.879125540329139
N,0.16936671575846834,0.7220178903873223,0.879125540329139
N,0.16955081001472755,0.7222449257594333,0.879125540329139
N,0.17010309278350516,0.7225400717431776,0.879125540329139
N,0.17028718703976436,0.7226535894292331,0.879125540329139
N,0.17065537555228277,0.7228806248013441,0.879125540329139
N,0.17083946980854198,0.7230168460246106,0.879125540329139
N,0.1713917525773196,0.7231757707850883,0.879125540329139
N,0.171759941089838,0.7236071379920992,0.879125540329139
N,0.1721281296023564,0.7238795804386323,0.879125540329139
N,0.1723122238586156,0.7246060936293874,0.879125540329139
N,0.17268041237113402,0.7246742042410208,0.879125540329139
N,0.17286450662739322,0.7248331290014984,0.879125540329139
N,0.17323269513991163,0.7253099032829314,0.879125540329139
N,0.17341678939617083,0.7259456023248422,0.879125540329139
N,0.17378497790868924,0.7260137129364755,0.879125540329139
N,0.17396907216494845,0.726149934159742,0.879125540329139
N,0.17415316642120765,0.7262861553830087,0.879125540329139
N,0.17452135493372606,0.7264223766062753,0.879125540329139
N,0.17488954344624447,0.7272851110202969,0.879125540329139
N,0.17544182621502208,0.7274667393179858,0.879125540329139
N,0.17581001472754051,0.7275575534668302,0.879125540329139
N,0.17636229749631813,0.7276483676156745,0.879125540329139
N,0.17654639175257733,0.7277391817645189,0.879125540329139
N,0.17691458026509574,0.7278526994505744,0.879125540329139
N,0.17709867452135494,0.7280797348226854,0.879125540329139
N,0.17765095729013256,0.7281251418971075,0.879125540329139
N,0.17783505154639176,0.7284429914180629,0.879125540329139
N,0.17820324005891017,0.7289878763111293,0.879125540329139
N,0.17838733431516937,0.7294646505925623,0.879125540329139
N,0.17875552282768778,0.7297597965763066,0.879125540329139
N,0.17893961708394698,0.7300095354856286,0.879125540329139
N,0.1793078055964654,0.7301457567088953,0.879125540329139
N,0.1794918998527246,0.7305771239159061,0.879125540329139
N,0.179860088365243,0.7306679380647505,0.879125540329139
N,0.1802282768777614,0.730781455750806,0.879125540329139
N,0.18059646539027982,0.7308268628252281,0.879125540329139
N,0.18078055964653902,0.731031194660128,0.879125540329139
N,0.18114874815905743,0.7311220088089725,0.879125540329139
N,0.18133284241531664,0.7314398583299278,0.879125540329139
N,0.18170103092783504,0.7317350043136721,0.879125540329139
N,0.18188512518409425,0.7321663715206829,0.879125540329139
N,0.18225331369661266,0.7322344821323162,0.879125540329139
N,0.18243740795287186,0.732643145802116,0.879125540329139
N,0.18280559646539027,0.7328474776370159,0.879125540329139
N,0.18298969072164947,0.7329836988602825,0.879125540329139
N,0.18335787923416788,0.7334831766789266,0.879125540329139
N,0.18354197349042708,0.7337102120510376,0.879125540329139
N,0.18391016200294552,0.733801026199882,0.879125540329139
N,0.18409425625920472,0.734050765109204,0.879125540329139
N,0.18446244477172313,0.7340961721836262,0.879125540329139
N,0.18464653902798234,0.7344140217045816,0.879125540329139
N,0.18501472754050075,0.734504835853426,0.879125540329139
N,0.18519882179675995,0.7348907959860146,0.879125540329139
N,0.18556701030927836,0.7351405348953367,0.879125540329139
N,0.18575110456553756,0.7357535304000363,0.879125540329139
N,0.18611929307805597,0.735912455160514,0.879125540329139
N,0.18648748159057438,0.7363438223675248,0.879125540329139
N,0.18685567010309279,0.7363892294419471,0.879125540329139
N,0.187039764359352,0.7366616718884802,0.879125540329139
N,0.1874079528718704,0.7367524860373246,0.879125540329139
N,0.1875920471281296,0.7370703355582799,0.879125540329139
N,0.18814432989690721,0.737547109839713,0.879125540329139
N,0.18832842415316642,0.7377287381374018,0.879125540329139
N,0.18869661266568483,0.7380238841211461,0.879125540329139
N,0.18888070692194403,0.7382736230304682,0.879125540329139
N,0.18943298969072164,0.7385006584025792,0.879125540329139
N,0.18961708394698085,0.7388866185351678,0.879125540329139
N,0.18998527245949925,0.7389093220723789,0.879125540329139
N,0.19016936671575846,0.7393179857421787,0.879125540329139
N,0.19053755522827687,0.7394542069654452,0.879125540329139
N,0.19072164948453607,0.7395904281887118,0.879125540329139
N,0.19127393225331368,0.7400217953957227,0.879125540329139
N,0.19164212076583212,0.7402942378422558,0.879125540329139
N,0.19182621502209132,0.7407029015120555,0.879125540329139
N,0.19201030927835053,0.7411342687190664,0.879125540329139
N,0.19274668630338734,0.7411569722562775,0.879125540329139
N,0.19311487481590575,0.7414748217772329,0.879125540329139
N,0.19366715758468336,0.7415429323888661,0.879125540329139
N,0.19385125184094257,0.741747264223766,0.879125540329139
N,0.19421944035346098,0.742201334967988,0.879125540329139
N,0.19440353460972018,0.7423829632656768,0.879125540329139
N,0.19458762886597938,0.7427689233982655,0.879125540329139
N,0.195139911634757,0.7428824410843209,0.879125540329139
N,0.1953240058910162,0.7430413658447986,0.879125540329139
N,0.1958762886597938,0.743132179993643,0.879125540329139
N,0.19606038291605302,0.7435181401262316,0.879125540329139
N,0.19642857142857142,0.7438586931843981,0.879125540329139
N,0.19661266568483063,0.7441538391681424,0.879125540329139
N,0.19698085419734904,0.7446987240612087,0.879125540329139
N,0.19716494845360824,0.7448803523588975,0.879125540329139
N,0.19771723122238585,0.7450392771193752,0.879125540329139
N,0.19790132547864506,0.7454025337147527,0.879125540329139
N,0.19826951399116347,0.7456068655496526,0.879125540329139
N,0.19845360824742267,0.7457430867729192,0.879125540329139
N,0.19900589101620028,0.7458339009217636,0.879125540329139
N,0.19918998527245949,0.7459020115333969,0.879125540329139
N,0.19955817378497792,0.7462425645915634,0.879125540329139
N,0.19974226804123713,0.7465377105753076,0.879125540329139
N,0.20011045655375553,0.7465604141125187,0.879125540329139
N,0.20029455081001474,0.7466739317985742,0.879125540329139
N,0.20066273932253315,0.7467420424102075,0.879125540329139
N,0.20084683357879235,0.7472869273032738,0.879125540329139
N,0.20121502209131076,0.7473550379149071,0.879125540329139
N,0.20158321060382917,0.7474231485265405,0.879125540329139
N,0.20195139911634757,0.7474685556009626,0.879125540329139
N,0.20231958762886598,0.7481496617172956,0.879125540329139
N,0.2026877761413844,0.7482177723289288,0.879125540329139
N,0.2030559646539028,0.7484902147754621,0.879125540329139
N,0.20379234167893961,0.7485356218498842,0.879125540329139
N,0.20397643593519882,0.7490805067429506,0.879125540329139
N,0.20434462444771723,0.7492848385778504,0.879125540329139
N,0.20508100147275404,0.7493756527266948,0.879125540329139
N,0.20544918998527245,0.7494664668755392,0.879125540329139
N,0.20600147275405006,0.7496707987104391,0.879125540329139
N,0.20636966126656847,0.7498070199337057,0.879125540329139
N,0.20655375552282768,0.7499205376197612,0.879125540329139
N,0.20692194403534608,0.7499432411569723,0.879125540329139
N,0.20710603829160532,0.7501248694546611,0.879125540329139
N,0.20747422680412372,0.7502383871407166,0.879125540329139
N,0.20784241531664213,0.7504200154384053,0.879125540329139
N,0.20821060382916054,0.7507151614221496,0.879125540329139
N,0.20839469808541974,0.751055714480316,0.879125540329139
N,0.20876288659793815,0.7511465286291604,0.879125540329139
N,0.20894698085419736,0.7512600463152159,0.879125540329139
N,0.20931516936671576,0.7513962675384825,0.879125540329139
N,0.20949926362297497,0.7514643781501158,0.879125540329139
N,0.20986745213549338,0.751532488761749,0.879125540329139
N,0.21005154639175258,0.7524179267129819,0.879125540329139
N,0.210419734904271,0.7525768514734595,0.879125540329139
N,0.2106038291605302,0.7527357762339373,0.879125540329139
N,0.2109720176730486,0.7527811833083594,0.879125540329139
N,0.2111561119293078,0.7529401080688372,0.879125540329139
N,0.2115243004418262,0.7531217363665259,0.879125540329139
N,0.21170839469808542,0.7537574354084366,0.879125540329139
N,0.21207658321060383,0.7538028424828588,0.879125540329139
N,0.21226067746686303,0.7547563910457249,0.879125540329139
N,0.21281296023564064,0.7548245016573583,0.879125540329139
N,0.21299705449189985,0.7556418289969578,0.879125540329139
N,0.21336524300441825,0.7556645325341689,0.879125540329139
N,0.21354933726067746,0.755936974980702,0.879125540329139
N,0.21391752577319587,0.7559596785179131,0.879125540329139
N,0.21410162002945507,0.7565726740226127,0.879125540329139
N,0.21446980854197348,0.7566634881714571,0.879125540329139
N,0.21465390279823268,0.7567543023203015,0.879125540329139
N,0.21520618556701032,0.7568905235435681,0.879125540329139
N,0.21539027982326953,0.7573672978250011,0.879125540329139
N,0.21575846833578793,0.7578213685692231,0.879125540329139
N,0.21594256259204714,0.7580938110157562,0.879125540329139
N,0.21649484536082475,0.758275439313445,0.879125540329139
N,0.21667893961708395,0.7586159923716115,0.879125540329139
N,0.21704712812960236,0.7590019525042001,0.879125540329139
N,0.21723122238586157,0.7591154701902556,0.879125540329139
N,0.21759941089837997,0.7592516914135222,0.879125540329139
N,0.21778350515463918,0.7595014303228443,0.879125540329139
N,0.2183357879234168,0.7596149480088998,0.879125540329139
N,0.218519882179676,0.7597284656949552,0.879125540329139
N,0.2188880706921944,0.7597738727693775,0.879125540329139
N,0.2190721649484536,0.7602960541252327,0.879125540329139
N,0.21944035346097202,0.7604549788857103,0.879125540329139
N,0.21962444771723122,0.7606139036461881,0.879125540329139
N,0.22036082474226804,0.7607728284066657,0.879125540329139
N,0.22072901325478644,0.7610225673159878,0.879125540329139
N,0.22109720176730485,0.761295009762521,0.879125540329139
N,0.22146539027982326,0.7618625981927984,0.879125540329139
N,0.22183357879234167,0.7619534123416428,0.879125540329139
N,0.22201767304860087,0.7621123371021206,0.879125540329139
N,0.22256995581737848,0.7629977750533533,0.879125540329139
N,0.22275405007363772,0.7634972528719974,0.879125540329139
N,0.22330633284241533,0.7635880670208418,0.879125540329139
N,0.22349042709867453,0.7637242882441084,0.879125540329139
N,0.22385861561119294,0.7642691731371748,0.879125540329139
N,0.22441089837997055,0.7647005403441857,0.879125540329139
N,0.22477908689248896,0.7649048721790855,0.879125540329139
N,0.22496318114874816,0.7652454252372519,0.879125540329139
N,0.22533136966126657,0.7654270535349408,0.879125540329139
N,0.22551546391752578,0.7655859782954184,0.879125540329139
N,0.22588365243004419,0.7658357172047405,0.879125540329139
N,0.2260677466863034,0.7661081596512737,0.879125540329139
N,0.226620029455081,0.7662670844117514,0.879125540329139
N,0.2268041237113402,0.7666757480815511,0.879125540329139
N,0.2271723122238586,0.7666984516187622,0.879125540329139
N,0.22735640648011782,0.7669481905280843,0.879125540329139
N,0.22772459499263623,0.7669708940652954,0.879125540329139
N,0.22790868924889543,0.7673341506606729,0.879125540329139
N,0.22827687776141384,0.7675384824955728,0.879125540329139
N,0.22846097201767304,0.767583889569995,0.879125540329139
N,0.22901325478645065,0.7677201107932616,0.879125540329139
N,0.22919734904270986,0.7681514780002724,0.879125540329139
N,0.22974963181148747,0.768287699223539,0.879125540329139
N,0.22993372606774667,0.7686509558189166,0.879125540329139
N,0.23048600883652431,0.7687190664305499,0.879125540329139
N,0.23067010309278352,0.7695818008445716,0.879125540329139
N,0.23103829160530193,0.7698315397538936,0.879125540329139
N,0.23122238586156113,0.7701720928120601,0.879125540329139
N,0.23159057437407954,0.7703991281841711,0.879125540329139
N,0.23177466863033874,0.7704445352585932,0.879125540329139
N,0.23232695139911635,0.7704672387958044,0.879125540329139
N,0.23251104565537556,0.7707396812423376,0.879125540329139
N,0.23287923416789397,0.7707850883167597,0.879125540329139
N,0.23306332842415317,0.7712845661354039,0.879125540329139
N,0.23343151693667158,0.7714888979703037,0.879125540329139
N,0.23361561119293078,0.7716251191935704,0.879125540329139
N,0.2341678939617084,0.7716705262679926,0.879125540329139
N,0.2343519882179676,0.7721245970122145,0.879125540329139
N,0.2349042709867452,0.7725786677564365,0.879125540329139
N,0.23508836524300442,0.7728284066657585,0.879125540329139
N,0.23545655375552282,0.772919220814603,0.879125540329139
N,0.23564064801178203,0.7732143667983472,0.879125540329139
N,0.23582474226804123,0.7736911410797802,0.879125540329139
N,0.23637702503681884,0.7739408799891023,0.879125540329139
N,0.23674521354933725,0.7742133224356355,0.879125540329139
N,0.23729749631811486,0.7743495436589021,0.879125540329139
N,0.23748159057437407,0.7745992825682241,0.879125540329139
N,0.23784977908689248,0.7747582073287018,0.879125540329139
N,0.23803387334315168,0.7752576851473459,0.879125540329139
N,0.23840206185567012,0.7752803886845571,0.879125540329139
N,0.23858615611192932,0.7757117558915679,0.879125540329139
N,0.23895434462444773,0.7757798665032012,0.879125540329139
N,0.23913843888070693,0.7760750124869454,0.879125540329139
N,0.23950662739322534,0.7762112337102121,0.879125540329139
N,0.23969072164948454,0.7762793443218453,0.879125540329139
N,0.24024300441826216,0.7766880079916451,0.879125540329139
N,0.24042709867452136,0.7768469327521228,0.879125540329139
N,0.24079528718703977,0.7768696362893339,0.879125540329139
N,0.24097938144329897,0.7770512645870227,0.879125540329139
N,0.24134756995581738,0.777142078735867,0.879125540329139
N,0.2417157584683358,0.7774145211824002,0.879125540329139
N,0.2420839469808542,0.7776642600917223,0.879125540329139
N,0.2424521354933726,0.7779821096126777,0.879125540329139
N,0.2426362297496318,0.7784134768196885,0.879125540329139
N,0.24318851251840942,0.7785042909685329,0.879125540329139
N,0.24337260677466863,0.7787994369522772,0.879125540329139
N,0.24374079528718703,0.7788902511011215,0.879125540329139
N,0.24392488954344624,0.7790718793988103,0.879125540329139
N,0.24429307805596465,0.7792081006220769,0.879125540329139
N,0.24447717231222385,0.7793897289197657,0.879125540329139
N,0.24539764359351987,0.7795032466058212,0.879125540329139
N,0.24558173784977907,0.77968487490351,0.879125540329139
N,0.24594992636229748,0.7797756890523544,0.879125540329139
N,0.24613402061855671,0.7800027244244653,0.879125540329139
N,0.24650220913107512,0.7802297597965763,0.879125540329139
N,0.24687039764359353,0.7807746446896426,0.879125540329139
N,0.24723858615611194,0.7809108659129093,0.879125540329139
N,0.24742268041237114,0.7815011578803978,0.879125540329139
N,0.24779086892488955,0.7816146755664533,0.879125540329139
N,0.24834315169366716,0.7817508967897199,0.879125540329139
N,0.24871134020618557,0.7819552286246197,0.879125540329139
N,0.24889543446244478,0.7820687463106752,0.879125540329139
N,0.24907952871870398,0.7822276710711529,0.879125540329139
N,0.2494477172312224,0.7825228170548971,0.879125540329139
N,0.2496318114874816,0.7828179630386414,0.879125540329139
N,0.25,0.7828633701130636,0.879125540329139
N,0.2501840942562592,0.7830222948735412,0.879125540329139
N,0.2507363770250368,0.7831131090223857,0.879125540329139
N,0.250920471281296,0.7831585160968079,0.879125540329139
N,0.25128865979381443,0.7833855514689189,0.879125540329139
N,0.25147275405007363,0.7839758434364074,0.879125540329139
N,0.25184094256259204,0.7842028788085184,0.879125540329139
N,0.25202503681885124,0.7843845071062071,0.879125540329139
N,0.25257731958762886,0.7844072106434182,0.879125540329139
N,0.25276141384388806,0.7847477637015847,0.879125540329139
N,0.25312960235640647,0.784815874313218,0.879125540329139
N,0.2533136966126657,0.7849520955364846,0.879125540329139
N,0.2540500736377025,0.7849975026109067,0.879125540329139
N,0.2542341678939617,0.7850656132225401,0.879125540329139
N,0.2546023564064801,0.7851791309085956,0.879125540329139
N,0.2547864506627393,0.7852245379830177,0.879125540329139
N,0.2551546391752577,0.7853607592062843,0.879125540329139
N,0.2553387334315169,0.785496980429551,0.879125540329139
N,0.2557069219440353,0.7856559051900286,0.879125540329139
N,0.25589101620029453,0.7859510511737728,0.879125540329139
N,0.25625920471281294,0.7860191617854062,0.879125540329139
N,0.25644329896907214,0.7861553830086727,0.879125540329139
N,0.25681148748159055,0.7861780865458838,0.879125540329139
N,0.25699558173784975,0.7863143077691505,0.879125540329139
N,0.25736377025036816,0.7863824183807837,0.879125540329139
N,0.25754786450662737,0.7867229714389502,0.879125540329139
N,0.25791605301914583,0.7868364891250057,0.879125540329139
N,0.25810014727540503,0.7871997457203832,0.879125540329139
N,0.25846833578792344,0.7872451527948054,0.879125540329139
N,0.25865243004418265,0.7874721881669164,0.879125540329139
N,0.25902061855670105,0.7875857058529719,0.879125540329139
N,0.25920471281296026,0.7877446306134496,0.879125540329139
N,0.25957290132547867,0.7877673341506607,0.879125540329139
N,0.25975699558173787,0.7878808518367162,0.879125540329139
N,0.2601251840942563,0.7879035553739273,0.879125540329139
N,0.2603092783505155,0.7883349225809381,0.879125540329139
N,0.2606774668630339,0.7885165508786269,0.879125540329139
N,0.2608615611192931,0.7891522499205377,0.879125540329139
N,0.2614138438880707,0.7891749534577487,0.879125540329139
N,0.2615979381443299,0.7895155065159152,0.879125540329139
N,0.2621502209131075,0.7895609135903374,0.879125540329139
N,0.2623343151693667,0.7900603914089815,0.879125540329139
N,0.26270250368188514,0.7904690550787813,0.879125540329139
N,0.26288659793814434,0.7906960904508923,0.879125540329139
N,0.26325478645066275,0.7910366435090587,0.879125540329139
N,0.26343888070692195,0.7913771965672252,0.879125540329139
N,0.26380706921944036,0.7915588248649139,0.879125540329139
N,0.26399116347569956,0.7919901920719248,0.879125540329139
N,0.2645434462444772,0.7922172274440358,0.879125540329139
N,0.2647275405007364,0.7929437406347909,0.879125540329139
N,0.2650957290132548,0.7930118512464241,0.879125540329139
N,0.265279823269514,0.7938745856604459,0.879125540329139
N,0.2656480117820324,0.7939881033465014,0.879125540329139
N,0.2658321060382916,0.7941924351814013,0.879125540329139
N,0.26620029455081,0.7942605457930345,0.879125540329139
N,0.2663843888070692,0.7949189483721564,0.879125540329139
N,0.2667525773195876,0.7950097625210008,0.879125540329139
N,0.26693667157584683,0.7953730191163784,0.879125540329139
N,0.26730486008836524,0.7954638332652227,0.879125540329139
N,0.26767304860088365,0.7958724969350225,0.879125540329139
N,0.26804123711340205,0.7964400853652999,0.879125540329139
N,0.26822533136966126,0.7966444172001997,0.879125540329139
N,0.26859351988217967,0.7970757844072106,0.879125540329139
N,0.26877761413843887,0.7973255233165327,0.879125540329139
N,0.2691458026509573,0.7977341869863325,0.879125540329139
N,0.2693298969072165,0.798074740044499,0.879125540329139
N,0.2696980854197349,0.798324478953821,0.879125540329139
N,0.2698821796759941,0.7985742178631431,0.879125540329139
N,0.2704344624447717,0.7987331426236207,0.879125540329139
N,0.2708026509572901,0.7991418062934205,0.879125540329139
N,0.2711708394698085,0.7991872133678427,0.879125540329139
N,0.27153902798232693,0.7992780275166871,0.879125540329139
N,0.27190721649484534,0.7995050628887981,0.879125540329139
N,0.27209131075110454,0.7997548017981202,0.879125540329139
N,0.27245949926362295,0.7997775053353312,0.879125540329139
N,0.27282768777614136,0.7998229124097535,0.879125540329139
N,0.27319587628865977,0.799936430095809,0.879125540329139
N,0.27337997054491897,0.8002088725423421,0.879125540329139
N,0.27374815905743743,0.800413204377242,0.879125540329139
N,0.27393225331369664,0.8006629432865641,0.879125540329139
N,0.27430044182621505,0.8006856468237752,0.879125540329139
N,0.27448453608247425,0.8014348635517413,0.879125540329139
N,0.27522091310751107,0.8014802706261636,0.879125540329139
N,0.27540500736377027,0.8017527130726967,0.879125540329139
N,0.2763254786450663,0.8019797484448077,0.879125540329139
N,0.2765095729013255,0.8021840802797076,0.879125540329139
N,0.2770618556701031,0.802751668709985,0.879125540329139
N,0.2772459499263623,0.8029332970076738,0.879125540329139
N,0.2777982326951399,0.8031603323797848,0.879125540329139
N,0.27835051546391754,0.8033192571402624,0.879125540329139
N,0.27871870397643594,0.8037506243472733,0.879125540329139
N,0.27890279823269515,0.8042046950914953,0.879125540329139
N,0.27945508100147276,0.8042501021659174,0.879125540329139
N,0.27963917525773196,0.8044090269263952,0.879125540329139
N,0.2803755522827688,0.8044544340008173,0.879125540329139
N,0.2807437407952872,0.8046587658357172,0.879125540329139
N,0.281480117820324,0.8046814693729283,0.879125540329139
N,0.2816642120765832,0.804840394133406,0.879125540329139
N,0.28240058910162,0.8051582436543614,0.879125540329139
N,0.28258468335787923,0.8054306861008945,0.879125540329139
N,0.28295287187039764,0.80554420378695,0.879125540329139
N,0.28313696612665684,0.8057258320846388,0.879125540329139
N,0.28368924889543445,0.8060436816055941,0.879125540329139
N,0.28387334315169366,0.8061117922172274,0.879125540329139
N,0.28424153166421207,0.8061571992916496,0.879125540329139
N,0.28442562592047127,0.8062934205149163,0.879125540329139
N,0.2847938144329897,0.8064069382009718,0.879125540329139
N,0.2849779086892489,0.8066112700358716,0.879125540329139
N,0.2853460972017673,0.8068383054079825,0.879125540329139
N,0.2857142857142857,0.8071334513917269,0.879125540329139
N,0.2860824742268041,0.8071561549289379,0.879125540329139
N,0.2862665684830633,0.8072242655405713,0.879125540329139
N,0.2866347569955817,0.8073377832266267,0.879125540329139
N,0.2868188512518409,0.8079507787313264,0.879125540329139
N,0.28737113402061853,0.8079961858057485,0.879125540329139
N,0.28755522827687774,0.8086772919220815,0.879125540329139
N,0.28792341678939615,0.8090632520546701,0.879125540329139
N,0.28810751104565535,0.8095854334105254,0.879125540329139
N,0.28865979381443296,0.809721654633792,0.879125540329139
N,0.28902798232695137,0.8099259864686918,0.879125540329139
N,0.28939617083946984,0.8099940970803251,0.879125540329139
N,0.28958026509572904,0.8100849112291695,0.879125540329139
N,0.28994845360824745,0.8102438359896472,0.879125540329139
N,0.29013254786450665,0.8104481678245471,0.879125540329139
N,0.29050073637702506,0.8105389819733915,0.879125540329139
N,0.29068483063328426,0.8107660173455025,0.879125540329139
N,0.29105301914580267,0.8108114244199246,0.879125540329139
N,0.2912371134020619,0.8110157562548245,0.879125540329139
N,0.2916053019145803,0.8111065704036688,0.879125540329139
N,0.2917893961708395,0.8112881987013577,0.879125540329139
N,0.2921575846833579,0.8114017163874132,0.879125540329139
N,0.2923416789396171,0.8116968623711575,0.879125540329139
N,0.2927098674521355,0.8118784906688462,0.879125540329139
N,0.2928939617083947,0.8119693048176906,0.879125540329139
N,0.2934462444771723,0.8121055260409572,0.879125540329139
N,0.29363033873343153,0.8126277073968124,0.879125540329139
N,0.29399852724594994,0.8130136675294011,0.879125540329139
N,0.29418262150220914,0.8131952958270898,0.879125540329139
N,0.29455081001472755,0.8132861099759342,0.879125540329139
N,0.29473490427098675,0.8136266630341007,0.879125540329139
N,0.29528718703976436,0.8136947736457341,0.879125540329139
N,0.29547128129602357,0.8138991054806339,0.879125540329139
N,0.295839469808542,0.8141034373155338,0.879125540329139
N,0.2960235640648012,0.8147164328202334,0.879125540329139
N,0.2963917525773196,0.8149207646551333,0.879125540329139
N,0.2965758468335788,0.8152840212505108,0.879125540329139
N,0.2969440353460972,0.8158970167552104,0.879125540329139
N,0.2971281296023564,0.8162148662761658,0.879125540329139
N,0.2978645066273932,0.8163056804250102,0.879125540329139
N,0.2980486008836524,0.81651001225991,0.879125540329139
N,0.29841678939617083,0.817191118376243,0.879125540329139
N,0.29860088365243004,0.8175543749716205,0.879125540329139
N,0.29896907216494845,0.817894928029787,0.879125540329139
N,0.29915316642120765,0.8183262952367979,0.879125540329139
N,0.29952135493372606,0.8184625164600645,0.879125540329139
N,0.29970544918998526,0.8186441447577533,0.879125540329139
N,0.30007363770250367,0.8186668482949644,0.879125540329139
N,0.3002577319587629,0.818825773055442,0.879125540329139
N,0.3006259204712813,0.8190982155019753,0.879125540329139
N,0.3008100147275405,0.819529582708986,0.879125540329139
N,0.3011782032400589,0.8198247286927304,0.879125540329139
N,0.3013622974963181,0.8200971711392635,0.879125540329139
N,0.3019145802650957,0.8201198746764746,0.879125540329139
N,0.3022827687776141,0.8202787994369523,0.879125540329139
N,0.3026509572901325,0.8203696135857966,0.879125540329139
N,0.30283505154639173,0.8205739454206965,0.879125540329139
N,0.30320324005891014,0.8206647595695409,0.879125540329139
N,0.30338733431516934,0.8212777550742406,0.879125540329139
N,0.30375552282768775,0.8215274939835626,0.879125540329139
N,0.30393961708394696,0.8220042682649957,0.879125540329139
N,0.30430780559646536,0.8220496753394179,0.879125540329139
N,0.30449189985272457,0.822549153158062,0.879125540329139
N,0.30486008836524303,0.8226399673069064,0.879125540329139
N,0.30504418262150224,0.823003223902284,0.879125540329139
N,0.30541237113402064,0.8231621486627616,0.879125540329139
N,0.30578055964653905,0.8235254052581392,0.879125540329139
N,0.30633284241531666,0.8236162194069836,0.879125540329139
N,0.30651693667157587,0.8240929936884167,0.879125540329139
N,0.3070692194403535,0.8242292149116832,0.879125540329139
N,0.3076215022091311,0.8243654361349498,0.879125540329139
N,0.3081737849779087,0.8244562502837942,0.879125540329139
N,0.3083578792341679,0.8247740998047496,0.879125540329139
N,0.3087260677466863,0.8250692457884938,0.879125540329139
N,0.3089101620029455,0.8253643917722381,0.879125540329139
N,0.30946244477172313,0.8254552059210825,0.879125540329139
N,0.30964653902798234,0.82602279435136,0.879125540329139
N,0.31001472754050075,0.8262271261862598,0.879125540329139
N,0.31019882179675995,0.8265676792444263,0.879125540329139
N,0.31056701030927836,0.8266584933932707,0.879125540329139
N,0.31075110456553756,0.8271806747491259,0.879125540329139
N,0.31111929307805597,0.827203378286337,0.879125540329139
N,0.3114874815905744,0.8274077101212369,0.879125540329139
N,0.3118556701030928,0.8275666348817146,0.879125540329139
N,0.312039764359352,0.8280661127003587,0.879125540329139
N,0.3124079528718704,0.8281569268492031,0.879125540329139
N,0.3127761413843888,0.8282477409980475,0.879125540329139
N,0.3133284241531664,0.828383962221314,0.879125540329139
N,0.3135125184094256,0.828610997593425,0.879125540329139
N,0.31388070692194403,0.8286337011306362,0.879125540329139
N,0.31406480117820323,0.8288153294283249,0.879125540329139
N,0.31461708394698085,0.8288607365027472,0.879125540329139
N,0.31480117820324005,0.8290196612632248,0.879125540329139
N,0.31516936671575846,0.8290423648004359,0.879125540329139
N,0.31535346097201766,0.8295645461562912,0.879125540329139
N,0.31572164948453607,0.8296099532307133,0.879125540329139
N,0.3159057437407953,0.8299278027516687,0.879125540329139
N,0.3162739322533137,0.8300413204377242,0.879125540329139
N,0.3164580265095729,0.8302910593470463,0.879125540329139
N,0.3168262150220913,0.8304272805703129,0.879125540329139
N,0.3170103092783505,0.8307224265540571,0.879125540329139
N,0.3173784977908689,0.8308586477773237,0.879125540329139
N,0.3177466863033873,0.8313808291331789,0.879125540329139
N,0.3181148748159057,0.8314943468192344,0.879125540329139
N,0.31829896907216493,0.8321527493983563,0.879125540329139
N,0.31866715758468334,0.8324251918448894,0.879125540329139
N,0.31885125184094254,0.8327203378286337,0.879125540329139
N,0.31921944035346095,0.8328792625891114,0.879125540329139
N,0.31940353460972015,0.8335149616310221,0.879125540329139
N,0.31995581737849776,0.8336057757798665,0.879125540329139
N,0.32013991163475697,0.8336738863914998,0.879125540329139
N,0.32069219440353464,0.833719293465922,0.879125540329139
N,0.32087628865979384,0.8338555146891886,0.879125540329139
N,0.32142857142857145,0.8338782182263996,0.879125540329139
N,0.32179675994108986,0.8340144394496662,0.879125540329139
N,0.32216494845360827,0.8342641783589884,0.879125540329139
N,0.3223490427098675,0.8346047314171547,0.879125540329139
N,0.3227172312223859,0.8351496163102211,0.879125540329139
N,0.3229013254786451,0.8353766516823321,0.879125540329139
N,0.3234536082474227,0.8356036870544431,0.879125540329139
N,0.3238217967599411,0.836284793170776,0.879125540329139
N,0.3241899852724595,0.8363756073196204,0.879125540329139
N,0.3245581737849779,0.836738863914998,0.879125540329139
N,0.32492636229749633,0.8368296780638423,0.879125540329139
N,0.32511045655375553,0.83719293465922,0.879125540329139
N,0.32547864506627394,0.8372383417336421,0.879125540329139
N,0.32566273932253315,0.8376015983290197,0.879125540329139
N,0.32621502209131076,0.8377151160150752,0.879125540329139
N,0.32658321060382917,0.8383508150569858,0.879125540329139
N,0.3269513991163476,0.838373518594197,0.879125540329139
N,0.3271354933726068,0.8393270671570631,0.879125540329139
N,0.3275036818851252,0.8393951777686963,0.879125540329139
N,0.3276877761413844,0.8400535803478182,0.879125540329139
N,0.328240058910162,0.8401670980338737,0.879125540329139
N,0.3284241531664212,0.8402352086455069,0.879125540329139
N,0.3286082474226804,0.8412795713572174,0.879125540329139
N,0.3289764359351988,0.8415066067293284,0.879125540329139
N,0.329160530191458,0.8419833810107614,0.879125540329139
N,0.32952871870397643,0.842119602234028,0.879125540329139
N,0.32989690721649484,0.8423693411433502,0.879125540329139
N,0.33026509572901325,0.8425509694410389,0.879125540329139
N,0.33044918998527245,0.8427780048131499,0.879125540329139
N,0.33081737849779086,0.8429596331108387,0.879125540329139
N,0.33100147275405006,0.8433455932434273,0.879125540329139
N,0.33136966126656847,0.8434818144666939,0.879125540329139
N,0.3315537555228277,0.8437088498388049,0.879125540329139
N,0.3319219440353461,0.843731553376016,0.879125540329139
N,0.3321060382916053,0.8438904781364936,0.879125540329139
N,0.3324742268041237,0.8440039958225491,0.879125540329139
N,0.3326583210603829,0.8444807701039821,0.879125540329139
N,0.3332106038291605,0.8446169913272488,0.879125540329139
N,0.3333946980854197,0.8454343186668483,0.879125540329139
N,0.3337628865979381,0.845842982336648,0.879125540329139
N,0.33394698085419733,0.8459110929482814,0.879125540329139
N,0.33431516936671574,0.846070017708759,0.879125540329139
N,0.33449926362297494,0.8461381283203924,0.879125540329139
N,0.33486745213549335,0.8462062389320256,0.879125540329139
N,0.33505154639175255,0.8468192344367252,0.879125540329139
N,0.33541973490427096,0.8469100485855696,0.879125540329139
N,0.33560382916053016,0.8472051945693139,0.879125540329139
N,0.33597201767304863,0.8480225219089134,0.879125540329139
N,0.33615611192930783,0.84815874313218,0.879125540329139
N,0.33652430044182624,0.8484992961903465,0.879125540329139
N,0.33689248895434465,0.849089588157835,0.879125540329139
N,0.33726067746686306,0.8491122916950461,0.879125540329139
N,0.33781296023564067,0.8496344730509013,0.879125540329139
N,0.3381811487481591,0.849770694274168,0.879125540329139
N,0.3383652430044183,0.8499296190346456,0.879125540329139
N,0.3387334315169367,0.8499523225718567,0.879125540329139
N,0.3389175257731959,0.8502701720928121,0.879125540329139
N,0.3398379970544919,0.8506334286881896,0.879125540329139
N,0.3402061855670103,0.8510420923579893,0.879125540329139
N,0.34057437407952873,0.8513145348045226,0.879125540329139
N,0.34075846833578793,0.8514280524905781,0.879125540329139
N,0.34112665684830634,0.8514507560277891,0.879125540329139
N,0.34149484536082475,0.8516777913999001,0.879125540329139
N,0.34186303387334316,0.8517231984743223,0.879125540329139
N,0.34204712812960236,0.8520637515324888,0.879125540329139
N,0.34241531664212077,0.8521318621441221,0.879125540329139
N,0.3427835051546392,0.8523361939790219,0.879125540329139
N,0.3433357879234168,0.8523588975162331,0.879125540329139
N,0.343519882179676,0.8527448576488217,0.879125540329139
N,0.3438880706921944,0.8527675611860328,0.879125540329139
N,0.3440721649484536,0.8528810788720883,0.879125540329139
N,0.344440353460972,0.8531535213186214,0.879125540329139
N,0.3446244477172312,0.8533578531535213,0.879125540329139
N,0.3449926362297496,0.8534486673023657,0.879125540329139
N,0.34517673048600883,0.8538800345093766,0.879125540329139
N,0.34554491899852724,0.8539027380465877,0.879125540329139
N,0.34572901325478644,0.8541978840303319,0.879125540329139
N,0.34591310751104565,0.8544930300140762,0.879125540329139
N,0.34609720176730485,0.8548335830722427,0.879125540329139
N,0.34646539027982326,0.8549471007582982,0.879125540329139
N,0.34664948453608246,0.8553557644280979,0.879125540329139
N,0.34701767304860087,0.8555146891885755,0.879125540329139
N,0.3472017673048601,0.8560141670072198,0.879125540329139
N,0.3475699558173785,0.8560368705444308,0.879125540329139
N,0.3477540500736377,0.8566044589747083,0.879125540329139
N,0.3481222385861561,0.8566952731235526,0.879125540329139
N,0.3483063328424153,0.8568314943468193,0.879125540329139
N,0.3486745213549337,0.857013122644508,0.879125540329139
N,0.3488586156111929,0.8571493438677746,0.879125540329139
N,0.34959499263622973,0.8571947509421968,0.879125540329139
N,0.34977908689248893,0.8575580075375744,0.879125540329139
N,0.35033136966126655,0.8576488216864188,0.879125540329139
N,0.35051546391752575,0.8581482995050629,0.879125540329139
N,0.35088365243004416,0.8586704808609181,0.879125540329139
N,0.35106774668630336,0.8587612950097625,0.879125540329139
N,0.35143593519882177,0.8590337374562957,0.879125540329139
N,0.35162002945508103,0.8593061799028289,0.879125540329139
N,0.35198821796759944,0.8596467329609954,0.879125540329139
N,0.35217231222385864,0.8600553966307951,0.879125540329139
N,0.35254050073637705,0.8601462107796395,0.879125540329139
N,0.35272459499263625,0.8603505426145394,0.879125540329139
N,0.35309278350515466,0.8603959496889615,0.879125540329139
N,0.35327687776141387,0.861667347772783,0.879125540329139
N,0.3536450662739323,0.8616900513099941,0.879125540329139
N,0.3538291605301915,0.8620533079053716,0.879125540329139
N,0.3541973490427099,0.8621441220542161,0.879125540329139
N,0.3543814432989691,0.8622122326658493,0.879125540329139
N,0.3547496318114875,0.8627117104844935,0.879125540329139
N,0.3549337260677467,0.8629841529310267,0.879125540329139
N,0.3554860088365243,0.8631430776915043,0.879125540329139
N,0.3556701030927835,0.8632338918403487,0.879125540329139
N,0.35622238586156113,0.8634609272124597,0.879125540329139
N,0.35640648011782033,0.8639604050311038,0.879125540329139
N,0.35677466863033874,0.863983108568315,0.879125540329139
N,0.35714285714285715,0.8640512191799482,0.879125540329139
N,0.35751104565537556,0.8641420333287926,0.879125540329139
N,0.35769513991163476,0.8645961040730146,0.879125540329139
N,0.3584315169366716,0.8649820642056032,0.879125540329139
N,0.3586156111929308,0.8654361349498252,0.879125540329139
N,0.3589837997054492,0.8655042455614584,0.879125540329139
N,0.3591678939617084,0.8657539844707806,0.879125540329139
N,0.3595360824742268,0.8659129092312582,0.879125540329139
N,0.359720176730486,0.8664804976615357,0.879125540329139
N,0.3600883652430044,0.8665259047359578,0.879125540329139
N,0.3602724594992636,0.8668664577941243,0.879125540329139
N,0.36064064801178203,0.8670026790173909,0.879125540329139
N,0.36082474226804123,0.8670707896290242,0.879125540329139
N,0.36137702503681884,0.8675248603732462,0.879125540329139
N,0.36156111929307805,0.867729192208146,0.879125540329139
N,0.36192930780559646,0.8677973028197793,0.879125540329139
N,0.36229749631811486,0.8680697452663125,0.879125540329139
N,0.3630338733431517,0.8683194841756345,0.879125540329139
N,0.3632179675994109,0.8687962584570676,0.879125540329139
N,0.3635861561119293,0.8690459973663897,0.879125540329139
N,0.3637702503681885,0.8695681787222449,0.879125540329139
N,0.3643225331369661,0.8696816964083004,0.879125540329139
N,0.3645066273932253,0.8699995459292558,0.879125540329139
N,0.36524300441826213,0.8701130636153113,0.879125540329139
N,0.36542709867452133,0.8703855060618444,0.879125540329139
N,0.36579528718703974,0.8704309131362666,0.879125540329139
N,0.36597938144329895,0.8706806520455888,0.879125540329139
N,0.36634756995581735,0.870975798029333,0.879125540329139
N,0.36653166421207656,0.8714071652363439,0.879125540329139
N,0.36708394698085417,0.8718612359805658,0.879125540329139
N,0.36726804123711343,0.8724515279480544,0.879125540329139
N,0.36800441826215025,0.8728601916178541,0.879125540329139
N,0.36818851251840945,0.8733823729737094,0.879125540329139
N,0.36855670103092786,0.8738591472551424,0.879125540329139
N,0.36910898379970547,0.8743586250737865,0.879125540329139
N,0.3696612665684831,0.8750624347273305,0.879125540329139
N,0.3698453608247423,0.8752440630250193,0.879125540329139
N,0.3702135493372607,0.8756754302320302,0.879125540329139
N,0.3703976435935199,0.8764246469599963,0.879125540329139
N,0.3707658321060383,0.8765381646460518,0.879125540329139
N,0.3711340206185567,0.8766062752576852,0.879125540329139
N,0.3715022091310751,0.876787903555374,0.879125540329139
N,0.3716863033873343,0.8771738636879626,0.879125540329139
N,0.37205449189985274,0.8772873813740181,0.879125540329139
N,0.37242268041237114,0.8781728193252508,0.879125540329139
N,0.37279086892488955,0.8785587794578396,0.879125540329139
N,0.37315905743740796,0.8788312219043727,0.879125540329139
N,0.3738954344624448,0.878899332516006,0.879125540329139
N,0.374079528718704,0.8790355537392726,0.879125540329139
N,0.3746318114874816,0.8792171820369613,0.879125540329139
N,0.3748159057437408,0.8792852926485947,0.879125540329139
N,0.3751840942562592,0.8793306997230168,0.879125540329139
N,0.3753681885125184,0.8797847704672388,0.879125540329139
N,0.3757363770250368,0.8798982881532943,0.879125540329139
N,0.375920471281296,0.8805566907324162,0.879125540329139
N,0.37647275405007363,0.881010761476638,0.879125540329139
N,0.37665684830633284,0.8813967216092267,0.879125540329139
N,0.37720913107511045,0.8815102392952822,0.879125540329139
N,0.37739322533136965,0.8818507923534487,0.879125540329139
N,0.37776141384388806,0.8820324206511374,0.879125540329139
N,0.37794550810014726,0.8822367524860373,0.879125540329139
N,0.3786818851251841,0.8822821595604595,0.879125540329139
N,0.3788659793814433,0.8823729737093039,0.879125540329139
N,0.3792341678939617,0.882849747990737,0.879125540329139
N,0.3794182621502209,0.8836443717931254,0.879125540329139
N,0.3797864506627393,0.8838260000908141,0.879125540329139
N,0.3801546391752577,0.8842119602234028,0.879125540329139
N,0.3805228276877761,0.8843935885210916,0.879125540329139
N,0.3807069219440353,0.8846660309676248,0.879125540329139
N,0.38107511045655373,0.8849157698769469,0.879125540329139
N,0.38125920471281294,0.884961176951369,0.879125540329139
N,0.38162739322533135,0.8849838804885801,0.879125540329139
N,0.38181148748159055,0.8852336193979022,0.879125540329139
N,0.38217967599410896,0.8854606547700131,0.879125540329139
N,0.38236377025036816,0.8855968759932797,0.879125540329139
N,0.38291605301914583,0.8857785042909685,0.879125540329139
N,0.38310014727540503,0.8866639422422014,0.879125540329139
N,0.38365243004418265,0.886800163465468,0.879125540329139
N,0.38383652430044185,0.8872996412841121,0.879125540329139
N,0.38420471281296026,0.8875493801934341,0.879125540329139
N,0.38438880706921946,0.8877083049539118,0.879125540329139
N,0.38475699558173787,0.887731008491123,0.879125540329139
N,0.3849410898379971,0.8880261544748672,0.879125540329139
N,0.3851251840942563,0.8880942650865005,0.879125540329139
N,0.3853092783505155,0.8883667075330336,0.879125540329139
N,0.3856774668630339,0.8884802252190891,0.879125540329139
N,0.3860456553755523,0.8887980747400445,0.879125540329139
N,0.3864138438880707,0.8888888888888888,0.879125540329139
N,0.3865979381443299,0.8895472914680107,0.879125540329139
N,0.3869661266568483,0.889615402079644,0.879125540329139
N,0.3871502209131075,0.8899332516005993,0.879125540329139
N,0.38751840942562593,0.8900467692866548,0.879125540329139
N,0.38770250368188514,0.8903873223448213,0.879125540329139
N,0.38825478645066275,0.8904781364936657,0.879125540329139
N,0.38843888070692195,0.8905462471052991,0.879125540329139
N,0.38899116347569956,0.8907051718657767,0.879125540329139
N,0.38917525773195877,0.8915679062797984,0.879125540329139
N,0.3895434462444772,0.8916133133542206,0.879125540329139
N,0.3897275405007364,0.8925441583798756,0.879125540329139
N,0.3900957290132548,0.8926349725287199,0.879125540329139
N,0.390279823269514,0.893361485719475,0.879125540329139
N,0.3906480117820324,0.8934522998683195,0.879125540329139
N,0.3908321060382916,0.8937474458520638,0.879125540329139
N,0.39120029455081,0.8939971847613858,0.879125540329139
N,0.3913843888070692,0.8940879989102302,0.879125540329139
N,0.39193667157584683,0.8942469236707079,0.879125540329139
N,0.39212076583210603,0.8948599191754075,0.879125540329139
N,0.39248895434462444,0.8949507333242519,0.879125540329139
N,0.39267304860088365,0.8954048040684739,0.879125540329139
N,0.39304123711340205,0.8955864323661626,0.879125540329139
N,0.39322533136966126,0.896131317259229,0.879125540329139
N,0.39359351988217967,0.8962675384824955,0.879125540329139
N,0.39377761413843887,0.8966989056895064,0.879125540329139
N,0.3941458026509573,0.8967670163011398,0.879125540329139
N,0.3943298969072165,0.8974254188802615,0.879125540329139
N,0.3946980854197349,0.8974708259546837,0.879125540329139
N,0.3948821796759941,0.8979703037733279,0.879125540329139
N,0.3954344624447717,0.898242746219861,0.879125540329139
N,0.3956185567010309,0.8986741134268719,0.879125540329139
N,0.3961708394698085,0.8987422240385052,0.879125540329139
N,0.39653902798232693,0.8988784452617717,0.879125540329139
N,0.39690721649484534,0.898923852336194,0.879125540329139
N,0.39709131075110454,0.8992417018571494,0.879125540329139
N,0.39745949926362295,0.8993098124687826,0.879125540329139
N,0.39764359351988215,0.8995595513781047,0.879125540329139
N,0.39819587628865977,0.9000363256595377,0.879125540329139
N,0.39856406480117823,0.9003541751804931,0.879125540329139
N,0.39893225331369664,0.9003995822549153,0.879125540329139
N,0.39911634756995584,0.9008990600735595,0.879125540329139
N,0.39948453608247425,0.9009671706851927,0.879125540329139
N,0.39966863033873345,0.9012169095945148,0.879125540329139
N,0.40003681885125186,0.901262316668937,0.879125540329139
N,0.40022091310751107,0.9023066793806475,0.879125540329139
N,0.4005891016200295,0.9023520864550697,0.879125540329139
N,0.4007731958762887,0.9024656041411252,0.879125540329139
N,0.4011413843888071,0.9028969713481361,0.879125540329139
N,0.4013254786450663,0.9032148208690914,0.879125540329139
N,0.4016936671575847,0.9034191527039913,0.879125540329139
N,0.4020618556701031,0.9044862189529128,0.879125540329139
N,0.4024300441826215,0.9049175861599237,0.879125540329139
N,0.4026141384388807,0.9052808427553013,0.879125540329139
N,0.4027982326951399,0.9054170639785679,0.879125540329139
N,0.40298232695139913,0.9057803205739454,0.879125540329139
N,0.40335051546391754,0.9060300594832675,0.879125540329139
N,0.40353460972017674,0.9066657585251783,0.879125540329139
N,0.40390279823269515,0.9067111655996004,0.879125540329139
N,0.40408689248895435,0.9073922717159334,0.879125540329139
N,0.40445508100147276,0.9075966035508333,0.879125540329139
N,0.40463917525773196,0.9080960813694774,0.879125540329139
N,0.4051914580265096,0.9081414884438995,0.879125540329139
N,0.4053755522827688,0.9087317804113881,0.879125540329139
N,0.4057437407952872,0.9088452980974436,0.879125540329139
N,0.4059278350515464,0.9092539617672434,0.879125540329139
N,0.4062960235640648,0.909412886527721,0.879125540329139
N,0.406480117820324,0.9095037006765654,0.879125540329139
N,0.4068483063328424,0.9096626254370431,0.879125540329139
N,0.4070324005891016,0.9098896608091541,0.879125540329139
N,0.40758468335787923,0.910093992644054,0.879125540329139
N,0.40776877761413843,0.9102756209417427,0.879125540329139
N,0.40813696612665684,0.9103210280161649,0.879125540329139
N,0.40832106038291605,0.9105253598510648,0.879125540329139
N,0.40868924889543445,0.9111610588929755,0.879125540329139
N,0.40887334315169366,0.9116151296371975,0.879125540329139
N,0.40924153166421207,0.9117059437860419,0.879125540329139
N,0.40942562592047127,0.9119329791581529,0.879125540329139
N,0.4097938144329897,0.911978386232575,0.879125540329139
N,0.4099779086892489,0.9121600145302639,0.879125540329139
N,0.4103460972017673,0.912205421604686,0.879125540329139
N,0.4105301914580265,0.9124551605140081,0.879125540329139
N,0.4108983799705449,0.9124778640512192,0.879125540329139
N,0.4110824742268041,0.9130000454070745,0.879125540329139
N,0.4114506627393225,0.9131135630931299,0.879125540329139
N,0.4116347569955817,0.9134541161512963,0.879125540329139
N,0.4120029455081001,0.9134768196885075,0.879125540329139
N,0.41218703976435933,0.9135676338373518,0.879125540329139
N,0.41273932253313694,0.9136811515234073,0.879125540329139
N,0.41292341678939615,0.9144076647141625,0.879125540329139
N,0.41347569955817376,0.9144303682513736,0.879125540329139
N,0.41365979381443296,0.915679062797984,0.879125540329139
N,0.41402798232695137,0.9157698769468283,0.879125540329139
N,0.41421207658321063,0.9164509830631612,0.879125540329139
N,0.41494845360824745,0.9166553148980611,0.879125540329139
N,0.41513254786450665,0.9172910139399718,0.879125540329139
N,0.41550073637702506,0.9173591245516052,0.879125540329139
N,0.41568483063328426,0.9178131952958271,0.879125540329139
N,0.4162371134020619,0.9179267129818826,0.879125540329139
N,0.4164212076583211,0.9182445625028379,0.879125540329139
N,0.4167893961708395,0.9189483721563819,0.879125540329139
N,0.4171575846833579,0.9202651773146256,0.879125540329139
N,0.4175257731958763,0.9202878808518368,0.879125540329139
N,0.4177098674521355,0.9205603232983699,0.879125540329139
N,0.4180780559646539,0.9206738409844254,0.879125540329139
N,0.4182621502209131,0.9212641329519139,0.879125540329139
N,0.41863033873343153,0.921286836489125,0.879125540329139
N,0.41881443298969073,0.9215592789356581,0.879125540329139
N,0.41918262150220914,0.9221041638287245,0.879125540329139
N,0.41936671575846834,0.9225355310357354,0.879125540329139
N,0.42010309278350516,0.9225809381101575,0.879125540329139
N,0.42028718703976436,0.9228079734822685,0.879125540329139
N,0.4206553755522828,0.9228987876311129,0.879125540329139
N,0.420839469808542,0.9232620442264905,0.879125540329139
N,0.4212076583210604,0.923375561912546,0.879125540329139
N,0.4213917525773196,0.923625300821868,0.879125540329139
N,0.421759941089838,0.9237388185079235,0.879125540329139
N,0.4219440353460972,0.9240112609544567,0.879125540329139
N,0.4223122238586156,0.924306406938201,0.879125540329139
N,0.4224963181148748,0.924533442310312,0.879125540329139
N,0.4228645066273932,0.9247150706080007,0.879125540329139
N,0.4230486008836524,0.9248966989056895,0.879125540329139
N,0.42341678939617083,0.9251464378150116,0.879125540329139
N,0.42360088365243004,0.925691322708078,0.879125540329139
N,0.42396907216494845,0.9258275439313445,0.879125540329139
N,0.42415316642120765,0.9260091722290332,0.879125540329139
N,0.42452135493372606,0.9261453934522998,0.879125540329139
N,0.42470544918998526,0.9264178358988331,0.879125540329139
N,0.42507363770250367,0.9265313535848885,0.879125540329139
N,0.4252577319587629,0.9268492031058438,0.879125540329139
N,0.4256259204712813,0.9278481587431322,0.879125540329139
N,0.4258100147275405,0.9279616764291877,0.879125540329139
N,0.4261782032400589,0.9281433047268765,0.879125540329139
N,0.4263622974963181,0.928506561322254,0.879125540329139
N,0.4267304860088365,0.928733596694365,0.879125540329139
N,0.4269145802650957,0.9289379285292648,0.879125540329139
N,0.4272827687776141,0.9299595877037643,0.879125540329139
N,0.4274668630338733,0.9314580211596967,0.879125540329139
N,0.42783505154639173,0.9317985742178632,0.879125540329139
N,0.42801914580265094,0.9329110475412069,0.879125540329139
N,0.42838733431516934,0.9331153793761068,0.879125540329139
N,0.42875552282768775,0.9334332288970622,0.879125540329139
N,0.42912371134020616,0.9338872996412841,0.879125540329139
N,0.42930780559646536,0.9341143350133951,0.879125540329139
N,0.42967599410898377,0.9341824456250284,0.879125540329139
N,0.42986008836524303,0.9348635517413613,0.879125540329139
N,0.43022827687776144,0.9352041047995278,0.879125540329139
N,0.43059646539027985,0.9354084366344276,0.879125540329139
N,0.43133284241531666,0.9375652726694819,0.879125540329139
N,0.43151693667157587,0.9381328610997594,0.879125540329139
N,0.4318851251840943,0.9382009717113926,0.879125540329139
N,0.4320692194403535,0.9383144893974481,0.879125540329139
N,0.4326215022091311,0.9384507106207147,0.879125540329139
N,0.4328055964653903,0.9386550424556146,0.879125540329139
N,0.4331737849779087,0.9386777459928257,0.879125540329139
N,0.4333578792341679,0.9389955955137811,0.879125540329139
N,0.4337260677466863,0.9391545202742587,0.879125540329139
N,0.4339101620029455,0.9395177768696363,0.879125540329139
N,0.43427835051546393,0.9395631839440585,0.879125540329139
N,0.43446244477172313,0.9397448122417472,0.879125540329139
N,0.43501472754050075,0.9401080688371248,0.879125540329139
N,0.43538291605301915,0.9402215865231803,0.879125540329139
N,0.43575110456553756,0.9404259183580802,0.879125540329139
N,0.43593519882179677,0.9406756572674022,0.879125540329139
N,0.4363033873343152,0.9409480997139354,0.879125540329139
N,0.4366715758468336,0.9414702810697907,0.879125540329139
N,0.437039764359352,0.9415156881442128,0.879125540329139
N,0.4374079528718704,0.9421286836489124,0.879125540329139
N,0.4377761413843888,0.9421967942605458,0.879125540329139
N,0.437960235640648,0.9423557190210234,0.879125540329139
N,0.4383284241531664,0.9424919402442901,0.879125540329139
N,0.4385125184094256,0.9425827543931344,0.879125540329139
N,0.43888070692194403,0.9426735685419788,0.879125540329139
N,0.43906480117820323,0.9430595286745675,0.879125540329139
N,0.43943298969072164,0.943422785269945,0.879125540329139
N,0.43961708394698085,0.9438087454025337,0.879125540329139
N,0.43998527245949925,0.9439222630885892,0.879125540329139
N,0.44016936671575846,0.9452163647096218,0.879125540329139
N,0.44053755522827687,0.9454888071561549,0.879125540329139
N,0.4409057437407953,0.9456023248422104,0.879125540329139
N,0.4412739322533137,0.9456250283794215,0.879125540329139
N,0.4416421207658321,0.9458520637515325,0.879125540329139
N,0.4420103092783505,0.94621532034691,0.879125540329139
N,0.4421944035346097,0.9467147981655541,0.879125540329139
N,0.4425625920471281,0.9467829087771875,0.879125540329139
N,0.4427466863033873,0.946896426463243,0.879125540329139
N,0.44348306332842413,0.9473050901330428,0.879125540329139
N,0.44366715758468334,0.9475321255051538,0.879125540329139
N,0.44403534609720174,0.9476229396539981,0.879125540329139
N,0.44421944035346095,0.9478953821005313,0.879125540329139
N,0.44495581737849776,0.9479407891749535,0.879125540329139
N,0.44569219440353464,0.9482813422331199,0.879125540329139
N,0.44624447717231225,0.9485537846796531,0.879125540329139
N,0.44642857142857145,0.949007855423875,0.879125540329139
N,0.44679675994108986,0.9490305589610861,0.879125540329139
N,0.44698085419734906,0.9491667801843527,0.879125540329139
N,0.4473490427098675,0.9492802978704082,0.879125540329139
N,0.4475331369661267,0.9493938155564637,0.879125540329139
N,0.4479013254786451,0.9494392226308859,0.879125540329139
N,0.4480854197349043,0.9500295145983745,0.879125540329139
N,0.4486377025036819,0.9504154747309631,0.879125540329139
N,0.4488217967599411,0.9509149525496072,0.879125540329139
N,0.4491899852724595,0.9510511737728738,0.879125540329139
N,0.4493740795287187,0.9513690232938292,0.879125540329139
N,0.4497422680412371,0.9514144303682514,0.879125540329139
N,0.44992636229749633,0.951777686963629,0.879125540329139
N,0.45029455081001474,0.9522090541706398,0.879125540329139
N,0.45047864506627394,0.9525042001543841,0.879125540329139
N,0.45084683357879235,0.9525496072288062,0.879125540329139
N,0.45103092783505155,0.9531398991962948,0.879125540329139
N,0.45158321060382917,0.9535485628660946,0.879125540329139
N,0.45176730486008837,0.9539118194614721,0.879125540329139
N,0.4521354933726068,0.9542977795940607,0.879125540329139
N,0.452319587628866,0.954819960949916,0.879125540329139
N,0.4526877761413844,0.9550924033964492,0.879125540329139
N,0.4528718703976436,0.9552286246197158,0.879125540329139
N,0.453240058910162,0.9552967352313491,0.879125540329139
N,0.4534241531664212,0.9555464741406711,0.879125540329139
N,0.4537923416789396,0.9555918812150933,0.879125540329139
N,0.4539764359351988,0.9558870271988376,0.879125540329139
N,0.4543446244477172,0.9565000227035372,0.879125540329139
N,0.45452871870397643,0.9567497616128593,0.879125540329139
N,0.45489690721649484,0.9568178722244925,0.879125540329139
N,0.45526509572901325,0.9570903146710258,0.879125540329139
N,0.45563328424153166,0.957158425282659,0.879125540329139
N,0.45581737849779086,0.9572946465059257,0.879125540329139
N,0.45618556701030927,0.9573173500431367,0.879125540329139
N,0.45636966126656847,0.9574308677291922,0.879125540329139
N,0.4571060382916053,0.9575670889524588,0.879125540329139
N,0.4572901325478645,0.9583844162920583,0.879125540329139
N,0.4576583210603829,0.9584071198292694,0.879125540329139
N,0.4578424153166421,0.9586114516641693,0.879125540329139
N,0.4582106038291605,0.9586568587385915,0.879125540329139
N,0.4583946980854197,0.9588157834990692,0.879125540329139
N,0.4587628865979381,0.9588838941107024,0.879125540329139
N,0.45894698085419733,0.9590882259456023,0.879125540329139
N,0.45931516936671574,0.9593379648549244,0.879125540329139
N,0.45949926362297494,0.959474186078191,0.879125540329139
N,0.46005154639175255,0.9595195931526131,0.879125540329139
N,0.46023564064801176,0.959701221450302,0.879125540329139
N,0.46060382916053016,0.9599055532852019,0.879125540329139
N,0.46078792341678937,0.9602234028061571,0.879125540329139
N,0.46115611192930783,0.9603142169550016,0.879125540329139
N,0.46134020618556704,0.960654770013168,0.879125540329139
N,0.46207658321060385,0.9609953230713345,0.879125540329139
N,0.46226067746686306,0.961562911501612,0.879125540329139
N,0.46281296023564067,0.9618580574853562,0.879125540329139
N,0.4629970544918999,0.9619715751714117,0.879125540329139
N,0.4633652430044183,0.9621532034691005,0.879125540329139
N,0.4635493372606775,0.9628570131226445,0.879125540329139
N,0.4639175257731959,0.9628797166598556,0.879125540329139
N,0.4641016200294551,0.9630613449575444,0.879125540329139
N,0.4646539027982327,0.963197566180811,0.879125540329139
N,0.4648379970544919,0.963447305090133,0.879125540329139
N,0.4652061855670103,0.9635154157017664,0.879125540329139
N,0.4653902798232695,0.9640375970576216,0.879125540329139
N,0.46575846833578793,0.964128411206466,0.879125540329139
N,0.46594256259204714,0.9643100395041547,0.879125540329139
N,0.46631075110456555,0.9643327430413658,0.879125540329139
N,0.46649484536082475,0.9647641102483767,0.879125540329139
N,0.46704712812960236,0.9649003314716433,0.879125540329139
N,0.46723122238586157,0.9654452163647096,0.879125540329139
N,0.4677835051546392,0.965513326976343,0.879125540329139
N,0.4679675994108984,0.9656949552740317,0.879125540329139
N,0.4683357879234168,0.9657403623484538,0.879125540329139
N,0.4687039764359352,0.9658538800345093,0.879125540329139
N,0.4690721649484536,0.9663306543159424,0.879125540329139
N,0.4692562592047128,0.9665803932252645,0.879125540329139
N,0.4699926362297496,0.9666258002996867,0.879125540329139
N,0.47017673048600883,0.9673069064160196,0.879125540329139
N,0.47054491899852724,0.9673977205648641,0.879125540329139
N,0.47072901325478644,0.9676701630113972,0.879125540329139
N,0.47146539027982326,0.9677609771602416,0.879125540329139
N,0.47183357879234167,0.9678744948462971,0.879125540329139
N,0.4723858615611193,0.9678971983835082,0.879125540329139
N,0.4725699558173785,0.9680561231439858,0.879125540329139
N,0.4729381443298969,0.9681015302184081,0.879125540329139
N,0.4733063328424153,0.9685328974254189,0.879125540329139
N,0.4736745213549337,0.9685783044998411,0.879125540329139
N,0.4738586156111929,0.9690096717068519,0.879125540329139
N,0.4742268041237113,0.9697588884348182,0.879125540329139
N,0.47459499263622973,0.9698269990464514,0.879125540329139
N,0.47496318114874814,0.9698497025836625,0.879125540329139
N,0.47514727540500734,0.9698951096580847,0.879125540329139
N,0.47569955817378495,0.969963220269718,0.879125540329139
N,0.47588365243004416,0.9700767379557735,0.879125540329139
N,0.47643593519882177,0.9700994414929847,0.879125540329139
N,0.47680412371134023,0.9704172910139399,0.879125540329139
N,0.47735640648011785,0.970439994551151,0.879125540329139
N,0.47772459499263625,0.9708032511465287,0.879125540329139
N,0.47809278350515466,0.9708713617581619,0.879125540329139
N,0.47827687776141387,0.9711892112791173,0.879125540329139
N,0.4786450662739323,0.9712119148163284,0.879125540329139
N,0.4788291605301915,0.9713935431140172,0.879125540329139
N,0.4791973490427099,0.9714389501884394,0.879125540329139
N,0.4793814432989691,0.9715751714117059,0.879125540329139
N,0.4799337260677467,0.9716886890977614,0.879125540329139
N,0.4801178203240059,0.972051945693139,0.879125540329139
N,0.4806701030927835,0.9720746492303501,0.879125540329139
N,0.4808541973490427,0.9722108704536166,0.879125540329139
N,0.48122238586156113,0.9723924987513054,0.879125540329139
N,0.48140648011782033,0.9726422376606275,0.879125540329139
N,0.48195876288659795,0.9727330518094719,0.879125540329139
N,0.48214285714285715,0.9731644190164828,0.879125540329139
N,0.48251104565537556,0.973232529628116,0.879125540329139
N,0.48269513991163476,0.9733687508513826,0.879125540329139
N,0.48306332842415317,0.9734141579258049,0.879125540329139
N,0.4834315169366716,0.9738228215956046,0.879125540329139
N,0.4839837997054492,0.9740044498932934,0.879125540329139
N,0.4845360824742268,0.9744358171003042,0.879125540329139
N,0.4849042709867452,0.9745720383235709,0.879125540329139
N,0.4850883652430044,0.974617445397993,0.879125540329139
N,0.4854565537555228,0.9746628524724152,0.879125540329139
N,0.48564064801178203,0.9747309630840485,0.879125540329139
N,0.48600883652430044,0.9748217772328929,0.879125540329139
N,0.48619293078055964,0.9749579984561595,0.879125540329139
N,0.48656111929307805,0.9749807019933706,0.879125540329139
N,0.48692930780559646,0.9752304409026926,0.879125540329139
N,0.4878497790868925,0.975321255051537,0.879125540329139
N,0.4880338733431517,0.9753893656631704,0.879125540329139
N,0.4885861561119293,0.9754120692003814,0.879125540329139
N,0.4889543446244477,0.9754801798120147,0.879125540329139
N,0.4898748159057437,0.9755028833492259,0.879125540329139
N,0.4900589101620029,0.9756618081097035,0.879125540329139
N,0.49042709867452133,0.9758434364073922,0.879125540329139
N,0.49061119293078054,0.9758888434818145,0.879125540329139
N,0.49116347569955815,0.9763429142260364,0.879125540329139
N,0.49153166421207656,0.9763883213004586,0.879125540329139
N,0.49189985272459497,0.9766380602097807,0.879125540329139
N,0.49226804123711343,0.9767288743586251,0.879125540329139
N,0.49263622974963184,0.9768423920446806,0.879125540329139
N,0.49282032400589104,0.977182945102847,0.879125540329139
N,0.49355670103092786,0.9772283521772692,0.879125540329139
N,0.49392488954344627,0.9773191663261136,0.879125540329139
N,0.4942930780559647,0.9773872769377469,0.879125540329139
N,0.4946612665684831,0.9775007946238023,0.879125540329139
N,0.4950294550810015,0.9776597193842801,0.879125540329139
N,0.4952135493372607,0.9777505335331245,0.879125540329139
N,0.4959499263622975,0.9777959406075467,0.879125540329139
N,0.4963181148748159,0.9779094582936021,0.879125540329139
N,0.49723858615611194,0.9780229759796576,0.879125540329139
N,0.49779086892488955,0.9781819007401353,0.879125540329139
N,0.49815905743740796,0.9782500113517686,0.879125540329139
N,0.49871134020618557,0.9784997502610907,0.879125540329139
N,0.499079528718704,0.9785224537983018,0.879125540329139
N,0.4992636229749632,0.978567860872724,0.879125540329139
N,0.4996318114874816,0.9785905644099351,0.879125540329139
N,0.5,0.9786586750215683,0.879125540329139
N,0.5003681885125184,0.9788403033192571,0.879125540329139
N,0.5005522827687776,0.9789765245425237,0.879125540329139
N,0.500920471281296,0.9789992280797348,0.879125540329139
N,0.5012886597938144,0.9791808563774236,0.879125540329139
N,0.5016568483063328,0.9793624846751123,0.879125540329139
N,0.5020250368188512,0.9794532988239568,0.879125540329139
N,0.5029455081001473,0.9795441129728012,0.879125540329139
N,0.5031296023564065,0.9796803341960677,0.879125540329139
N,0.5034977908689249,0.9797030377332788,0.879125540329139
N,0.5036818851251841,0.9797484448077011,0.879125540329139
N,0.5042341678939617,0.9798846660309676,0.879125540329139
N,0.5044182621502209,0.9799754801798121,0.879125540329139
N,0.5053387334315169,0.9799981837170231,0.879125540329139
N,0.5055228276877761,0.9801798120147119,0.879125540329139
N,0.5058910162002945,0.9802479226263452,0.879125540329139
N,0.5062592047128129,0.9804749579984562,0.879125540329139
N,0.5066273932253313,0.9804976615356673,0.879125540329139
N,0.5069955817378498,0.9806565862961449,0.879125540329139
N,0.5075478645066274,0.9806792898333561,0.879125540329139
N,0.5077319587628866,0.9808836216682559,0.879125540329139
N,0.5086524300441826,0.9809063252054671,0.879125540329139
N,0.509020618556701,0.9809971393543114,0.879125540329139
N,0.5093888070692194,0.9810198428915226,0.879125540329139
N,0.509941089837997,0.9810652499659447,0.879125540329139
N,0.5103092783505154,0.9810879535031558,0.879125540329139
N,0.5110456553755522,0.9811333605775779,0.879125540329139
N,0.5114138438880707,0.9811560641147891,0.879125540329139
N,0.5117820324005891,0.9813149888752668,0.879125540329139
N,0.5123343151693667,0.9815420242473777,0.879125540329139
N,0.5127025036818851,0.9816555419334332,0.879125540329139
N,0.5132547864506627,0.9816782454706443,0.879125540329139
N,0.5134388807069219,0.9817463560822777,0.879125540329139
N,0.5139911634756995,0.9817690596194887,0.879125540329139
N,0.5143593519882179,0.9819052808427553,0.879125540329139
N,0.5147275405007363,0.9819279843799664,0.879125540329139
N,0.5149116347569955,0.9820642056032329,0.879125540329139
N,0.5156480117820325,0.9821777232892884,0.879125540329139
N,0.5158321060382917,0.9823366480497662,0.879125540329139
N,0.5162002945508101,0.9823593515869773,0.879125540329139
N,0.5163843888070693,0.9824728692730328,0.879125540329139
N,0.5169366715758469,0.9825182763474549,0.879125540329139
N,0.5171207658321061,0.9827453117195659,0.879125540329139
N,0.5174889543446245,0.982790718793988,0.879125540329139
N,0.5176730486008837,0.9829042364800435,0.879125540329139
N,0.5180412371134021,0.9829269400172547,0.879125540329139
N,0.5189617083946981,0.9830404577033102,0.879125540329139
N,0.5193298969072165,0.9830858647777324,0.879125540329139
N,0.519698085419735,0.9831539753893657,0.879125540329139
N,0.5204344624447718,0.9831766789265768,0.879125540329139
N,0.520618556701031,0.9833129001498433,0.879125540329139
N,0.5213549337260678,0.9834037142986878,0.879125540329139
N,0.521539027982327,0.9834945284475322,0.879125540329139
N,0.5220913107511046,0.9835853425963765,0.879125540329139
N,0.5222754050073638,0.9836534532080098,0.879125540329139
N,0.5226435935198822,0.9836761567452209,0.879125540329139
N,0.5230117820324006,0.9837896744312764,0.879125540329139
N,0.5239322533136966,0.9838123779684875,0.879125540329139
N,0.5241163475699558,0.9838577850429097,0.879125540329139
N,0.5250368188512519,0.9839031921173319,0.879125540329139
N,0.5252209131075111,0.9839713027289652,0.879125540329139
N,0.5255891016200295,0.9840848204150207,0.879125540329139
N,0.5257731958762887,0.984175634563865,0.879125540329139
N,0.5265095729013255,0.9842437451754984,0.879125540329139
N,0.5272459499263623,0.9843799663987649,0.879125540329139
N,0.5283505154639175,0.984402669935976,0.879125540329139
N,0.5292709867452136,0.9845615946964537,0.879125540329139
N,0.5300073637702504,0.9845842982336648,0.879125540329139
N,0.5303755522827688,0.9846524088452981,0.879125540329139
N,0.5309278350515464,0.9846978159197203,0.879125540329139
N,0.5311119293078056,0.9848340371429869,0.879125540329139
N,0.5316642120765832,0.984856740680198,0.879125540329139
N,0.53240058910162,0.9849475548290424,0.879125540329139
N,0.533321060382916,0.9849929619034645,0.879125540329139
N,0.5338733431516937,0.9850837760523089,0.879125540329139
N,0.5346097201767305,0.9851745902011534,0.879125540329139
N,0.5349779086892489,0.9852427008127866,0.879125540329139
N,0.5355301914580265,0.9853789220360533,0.879125540329139
N,0.5364506627393225,0.9854924397221088,0.879125540329139
N,0.5368188512518409,0.9855151432593198,0.879125540329139
N,0.5370029455081001,0.985560550333742,0.879125540329139
N,0.5373711340206185,0.9855832538709531,0.879125540329139
N,0.5381075110456554,0.9856513644825864,0.879125540329139
N,0.538659793814433,0.9856740680197975,0.879125540329139
N,0.5388438880706922,0.9857194750942196,0.879125540329139
N,0.5392120765832106,0.9857421786314308,0.879125540329139
N,0.539580265095729,0.9859465104663306,0.879125540329139
N,0.5416053019145802,0.9859692140035418,0.879125540329139
N,0.5417893961708394,0.9860146210779639,0.879125540329139
N,0.5421575846833578,0.986037324615175,0.879125540329139
N,0.542341678939617,0.9861962493756528,0.879125540329139
N,0.5427098674521355,0.9862189529128639,0.879125540329139
N,0.5428939617083947,0.9862870635244971,0.879125540329139
N,0.5439985272459499,0.9863097670617083,0.879125540329139
N,0.5441826215022091,0.9864459882849748,0.879125540329139
N,0.5445508100147275,0.9864686918221859,0.879125540329139
N,0.5447349042709867,0.9865140988966081,0.879125540329139
N,0.5454712812960235,0.9865368024338191,0.879125540329139
N,0.5467599410898379,0.9865822095082414,0.879125540329139
N,0.5471281296023565,0.9866049130454525,0.879125540329139
N,0.5476804123711341,0.9866503201198746,0.879125540329139
N,0.5482326951399117,0.986718430731508,0.879125540329139
N,0.5484167893961709,0.9868319484175635,0.879125540329139
N,0.5489690721649485,0.9868546519547745,0.879125540329139
N,0.5500736377025037,0.9869227625664079,0.879125540329139
N,0.5508100147275405,0.986945466103619,0.879125540329139
N,0.5509941089837997,0.9870589837896744,0.879125540329139
N,0.5515463917525774,0.9870816873268855,0.879125540329139
N,0.5517304860088366,0.9871725014757299,0.879125540329139
N,0.5526509572901326,0.987195205012941,0.879125540329139
N,0.5535714285714286,0.9872406120873632,0.879125540329139
N,0.554860088365243,0.9873087226989965,0.879125540329139
N,0.5552282768777614,0.9874449439222631,0.879125540329139
N,0.5555964653902798,0.9875130545338964,0.879125540329139
N,0.5563328424153167,0.9876265722199519,0.879125540329139
N,0.5576215022091311,0.9877400899060074,0.879125540329139
N,0.5581737849779087,0.9878082005176406,0.879125540329139
N,0.5589101620029455,0.9878309040548517,0.879125540329139
N,0.56019882179676,0.9879671252781184,0.879125540329139
N,0.561119293078056,0.9880125323525405,0.879125540329139
N,0.5618556701030928,0.9880579394269627,0.879125540329139
N,0.5627761413843888,0.9880806429641739,0.879125540329139
N,0.5631443298969072,0.9882168641874404,0.879125540329139
N,0.5644329896907216,0.9882395677246515,0.879125540329139
N,0.56480117820324,0.988353085410707,0.879125540329139
N,0.5657216494845361,0.9883757889479181,0.879125540329139
N,0.5666421207658321,0.9884211960223402,0.879125540329139
N,0.5673784977908689,0.9884438995595514,0.879125540329139
N,0.5675625920471281,0.9884893066339736,0.879125540329139
N,0.5686671575846833,0.9885347137083957,0.879125540329139
N,0.5688512518409425,0.9886028243200291,0.879125540329139
N,0.5694035346097202,0.9887163420060846,0.879125540329139
N,0.5695876288659794,0.988807156154929,0.879125540329139
N,0.5699558173784978,0.98882985969214,0.879125540329139
N,0.5706921944035346,0.9888752667665622,0.879125540329139
N,0.5717967599410898,0.9888979703037734,0.879125540329139
N,0.571980854197349,0.9890114879898289,0.879125540329139
N,0.572901325478645,0.9890795986014621,0.879125540329139
N,0.5736377025036818,0.9892612268991509,0.879125540329139
N,0.5747422680412371,0.989283930436362,0.879125540329139
N,0.5749263622974963,0.9893974481224175,0.879125540329139
N,0.5765832106038291,0.9894428551968397,0.879125540329139
N,0.5767673048600883,0.9895336693456841,0.879125540329139
N,0.5787923416789397,0.9895790764201062,0.879125540329139
N,0.5791605301914581,0.9896244834945285,0.879125540329139
N,0.5798969072164949,0.9896471870317396,0.879125540329139
N,0.5800810014727541,0.9897152976433728,0.879125540329139
N,0.5815537555228277,0.989738001180584,0.879125540329139
N,0.5819219440353461,0.9898969259410616,0.879125540329139
N,0.5833946980854198,0.9899423330154838,0.879125540329139
N,0.5841310751104566,0.989987740089906,0.879125540329139
N,0.5848674521354934,0.9900104436271171,0.879125540329139
N,0.5852356406480118,0.9901012577759615,0.879125540329139
N,0.5872606774668631,0.9901920719248059,0.879125540329139
N,0.5874447717231223,0.9902601825364392,0.879125540329139
N,0.5881811487481591,0.9902828860736502,0.879125540329139
N,0.5887334315169367,0.9903737002224947,0.879125540329139
N,0.5896539027982327,0.9903964037597057,0.879125540329139
N,0.5903902798232695,0.990441810834128,0.879125540329139
N,0.5931516936671576,0.9904872179085501,0.879125540329139
N,0.593519882179676,0.9905326249829723,0.879125540329139
N,0.594440353460972,0.9905553285201835,0.879125540329139
N,0.5946244477172312,0.9906461426690278,0.879125540329139
N,0.5955449189985272,0.9906915497434501,0.879125540329139
N,0.5959131075110456,0.9907823638922945,0.879125540329139
N,0.5973858615611193,0.9908050674295055,0.879125540329139
N,0.5977540500736377,0.990918585115561,0.879125540329139
N,0.5990427098674521,0.9909412886527721,0.879125540329139
N,0.5992268041237113,0.9910093992644053,0.879125540329139
N,0.6003313696612665,0.9910548063388276,0.879125540329139
N,0.6005154639175257,0.9911229169504608,0.879125540329139
N,0.6021723122238586,0.991145620487672,0.879125540329139
N,0.6023564064801178,0.9912364346365163,0.879125540329139
N,0.605301914580265,0.9912591381737275,0.879125540329139
N,0.6054860088365243,0.9913045452481497,0.879125540329139
N,0.6064064801178203,0.9913272487853607,0.879125540329139
N,0.6082474226804123,0.991372655859783,0.879125540329139
N,0.6093519882179675,0.9913953593969941,0.879125540329139
N,0.6099042709867453,0.9915315806202606,0.879125540329139
N,0.6104565537555229,0.9915542841574717,0.879125540329139
N,0.6110088365243005,0.991599691231894,0.879125540329139
N,0.6124815905743741,0.9916450983063161,0.879125540329139
N,0.6132179675994109,0.9917586159923716,0.879125540329139
N,0.6146907216494846,0.9917813195295827,0.879125540329139
N,0.615058910162003,0.991826726604005,0.879125540329139
N,0.6154270986745214,0.991849430141216,0.879125540329139
N,0.6157952871870398,0.9918948372156382,0.879125540329139
N,0.616899852724595,0.9919175407528493,0.879125540329139
N,0.6176362297496318,0.9919629478272715,0.879125540329139
N,0.6198453608247423,0.9919856513644826,0.879125540329139
N,0.6203976435935199,0.9920310584389048,0.879125540329139
N,0.6207658321060383,0.9920537619761158,0.879125540329139
N,0.6209499263622975,0.9921899831993825,0.879125540329139
N,0.6246318114874816,0.9922353902738047,0.879125540329139
N,0.6251840942562592,0.9922807973482268,0.879125540329139
N,0.6255522827687776,0.992303500885438,0.879125540329139
N,0.6270250368188512,0.9923489079598602,0.879125540329139
N,0.6279455081001473,0.9923716114970712,0.879125540329139
N,0.6281296023564065,0.9924170185714934,0.879125540329139
N,0.6284977908689249,0.9924397221087046,0.879125540329139
N,0.6290500736377025,0.9924851291831267,0.879125540329139
N,0.6301546391752577,0.992530536257549,0.879125540329139
N,0.6303387334315169,0.9925986468691822,0.879125540329139
N,0.6353092783505154,0.9926213504063933,0.879125540329139
N,0.6354933726067746,0.9926667574808156,0.879125540329139
N,0.6408321060382917,0.9926894610180266,0.879125540329139
N,0.6417525773195877,0.9927348680924488,0.879125540329139
N,0.6423048600883653,0.9927575716296599,0.879125540329139
N,0.6426730486008837,0.9928256822412932,0.879125540329139
N,0.644698085419735,0.9928710893157154,0.879125540329139
N,0.6448821796759941,0.9929391999273487,0.879125540329139
N,0.6459867452135494,0.9929619034645598,0.879125540329139
N,0.647459499263623,0.9930300140761931,0.879125540329139
N,0.6487481590574374,0.9930527176134042,0.879125540329139
N,0.6494845360824743,0.9930981246878263,0.879125540329139
N,0.6513254786450663,0.9931208282250374,0.879125540329139
N,0.6527982326951399,0.9931662352994597,0.879125540329139
N,0.654639175257732,0.9931889388366707,0.879125540329139
N,0.6553755522827688,0.9932343459110929,0.879125540329139
N,0.65740058910162,0.9932570494483041,0.879125540329139
N,0.658321060382916,0.9933478635971484,0.879125540329139
N,0.6592415316642121,0.9933705671343596,0.879125540329139
N,0.6596097201767305,0.9934159742087817,0.879125540329139
N,0.6612665684830633,0.9934386777459928,0.879125540329139
N,0.6620029455081001,0.9935067883576261,0.879125540329139
N,0.6653166421207658,0.9935294918948372,0.879125540329139
N,0.6662371134020618,0.9935748989692594,0.879125540329139
N,0.6666053019145802,0.9935976025064706,0.879125540329139
N,0.6677098674521355,0.9936430095808927,0.879125540329139
N,0.6682621502209131,0.9936657131181038,0.879125540329139
N,0.6686303387334315,0.9937111201925259,0.879125540329139
N,0.6723122238586157,0.9937338237297371,0.879125540329139
N,0.6724963181148749,0.9937792308041593,0.879125540329139
N,0.6728645066273933,0.9938019343413704,0.879125540329139
N,0.6754418262150221,0.9938473414157926,0.879125540329139
N,0.6758100147275405,0.9938700449530037,0.879125540329139
N,0.6759941089837997,0.9939154520274259,0.879125540329139
N,0.6787555228276878,0.9939381555646369,0.879125540329139
N,0.6846465390279823,0.9940062661762703,0.879125540329139
N,0.6866715758468336,0.9940516732506924,0.879125540329139
N,0.6868556701030928,0.9940970803251147,0.879125540329139
N,0.6885125184094256,0.9941197838623258,0.879125540329139
N,0.6886966126656848,0.9941651909367479,0.879125540329139
N,0.68980117820324,0.994187894473959,0.879125540329139
N,0.6907216494845361,0.9942560050855923,0.879125540329139
N,0.6914580265095729,0.9942787086228034,0.879125540329139
N,0.6932989690721649,0.9943241156972257,0.879125540329139
N,0.696060382916053,0.9943468192344367,0.879125540329139
N,0.6964285714285714,0.99441492984607,0.879125540329139
N,0.6973490427098674,0.9944376333832811,0.879125540329139
N,0.6980854197349042,0.9945738546065477,0.879125540329139
N,0.6991899852724595,0.9945965581437588,0.879125540329139
N,0.6997422680412371,0.994641965218181,0.879125540329139
N,0.7015832106038291,0.9946646687553921,0.879125540329139
N,0.7043446244477173,0.9947100758298143,0.879125540329139
N,0.7054491899852725,0.9947327793670254,0.879125540329139
N,0.711340206185567,0.9947781864414476,0.879125540329139
N,0.7142857142857143,0.9948235935158698,0.879125540329139
N,0.7157584683357879,0.9948690005902919,0.879125540329139
N,0.7190721649484536,0.994891704127503,0.879125540329139
N,0.7199926362297496,0.9949825182763474,0.879125540329139
N,0.7209131075110456,0.9950052218135585,0.879125540329139
N,0.7210972017673049,0.9950506288879808,0.879125540329139
N,0.7218335787923417,0.995118739499614,0.879125540329139
N,0.7222017673048601,0.9951868501112473,0.879125540329139
N,0.7244108983799705,0.9952095536484584,0.879125540329139
N,0.7245949926362297,0.9952776642600917,0.879125540329139
N,0.7271723122238586,0.9953230713345139,0.879125540329139
N,0.7279086892488954,0.9953911819461472,0.879125540329139
N,0.7290132547864506,0.9954138854833583,0.879125540329139
N,0.7308541973490427,0.9954592925577805,0.879125540329139
N,0.7328792341678939,0.9955046996322027,0.879125540329139
N,0.7332474226804123,0.9955501067066249,0.879125540329139
N,0.7356406480117821,0.995572810243836,0.879125540329139
N,0.7371134020618557,0.9956409208554693,0.879125540329139
N,0.7382179675994109,0.9956636243926804,0.879125540329139
N,0.7396907216494846,0.9957317350043137,0.879125540329139
N,0.7404270986745214,0.9957544385415248,0.879125540329139
N,0.7420839469808542,0.9958452526903692,0.879125540329139
N,0.7442930780559647,0.9958679562275803,0.879125540329139
N,0.7448453608247423,0.9959360668392135,0.879125540329139
N,0.7466863033873343,0.9959587703764247,0.879125540329139
N,0.7479749631811488,0.9960041774508468,0.879125540329139
N,0.7485272459499264,0.9960268809880579,0.879125540329139
N,0.749079528718704,0.9960722880624802,0.879125540329139
N,0.7516568483063328,0.9960949915996913,0.879125540329139
N,0.7520250368188512,0.9961631022113245,0.879125540329139
N,0.7546023564064801,0.9961858057485357,0.879125540329139
N,0.7569955817378498,0.9962312128229578,0.879125540329139
N,0.7579160530191458,0.9962539163601689,0.879125540329139
N,0.758100147275405,0.9962993234345912,0.879125540329139
N,0.7603092783505154,0.9963220269718022,0.879125540329139
N,0.7604933726067746,0.9963674340462244,0.879125540329139
N,0.7625184094256259,0.9964355446578577,0.879125540329139
N,0.7634388807069219,0.996503655269491,0.879125540329139
N,0.7641752577319587,0.996526358806702,0.879125540329139
N,0.7663843888070693,0.9965944694183354,0.879125540329139
N,0.7671207658321061,0.9966171729555465,0.879125540329139
N,0.7674889543446245,0.9966625800299687,0.879125540329139
N,0.7702503681885126,0.9966852835671798,0.879125540329139
N,0.7730117820324006,0.9967988012532353,0.879125540329139
N,0.7744845360824743,0.9968215047904464,0.879125540329139
N,0.7754050073637703,0.9968896154020797,0.879125540329139
N,0.7765095729013255,0.9969123189392908,0.879125540329139
N,0.7779823269513991,0.9969577260137129,0.879125540329139
N,0.7783505154639175,0.9970031330881352,0.879125540329139
N,0.7818483063328424,0.9970485401625573,0.879125540329139
N,0.7829528718703976,0.9970712436997684,0.879125540329139
N,0.7840574374079529,0.9971393543114018,0.879125540329139
N,0.7851620029455081,0.9971620578486128,0.879125540329139
N,0.7853460972017673,0.9972301684602461,0.879125540329139
N,0.7881075110456554,0.9972528719974572,0.879125540329139
N,0.7882916053019146,0.9972982790718794,0.879125540329139
N,0.789580265095729,0.9973209826090905,0.879125540329139
N,0.7897643593519882,0.9973663896835127,0.879125540329139
N,0.7906848306332842,0.9974117967579349,0.879125540329139
N,0.792341678939617,0.997457203832357,0.879125540329139
N,0.7943667157584683,0.9974799073695682,0.879125540329139
N,0.7945508100147275,0.9975707215184125,0.879125540329139
N,0.7971281296023565,0.9976161285928348,0.879125540329139
N,0.7982326951399117,0.9976615356672569,0.879125540329139
N,0.7987849779086893,0.997684239204468,0.879125540329139
N,0.7995213549337261,0.9977523498161014,0.879125540329139
N,0.8035714285714286,0.9977750533533124,0.879125540329139
N,0.803939617083947,0.9978204604277346,0.879125540329139
